# OpenSignals Text File Format. Version 1
# {"98:D3:91:FD:3E:E0": {"position": 0, "device": "bitalino_rev", "device name": "98:D3:91:FD:3E:E0", "device connection": "BTH98:D3:91:FD:3E:E0", "sampling rate": 1000, "resolution": [4, 1, 1, 1, 1, 10, 10], "firmware version": 1281, "comments": "", "keywords": "", "mode": 0, "sync interval": 2, "date": "2021-5-5", "time": "15:41:07.494", "channels": [2, 3], "sensor": ["ECGBIT", "EDABITREV"], "label": ["A2", "A3"], "column": ["nSeq", "I1", "I2", "O1", "O2", "A2", "A3"], "special": [{}, {}], "digital IO": [0, 0, 1, 1], "convertedValues": 0}}
# EndOfHeader
0	0	0	0	0	518	654	
1	0	0	0	0	520	654	
2	0	0	0	0	524	654	
3	0	0	0	0	527	654	
4	0	0	0	0	530	654	
5	0	0	0	0	533	654	
6	0	0	0	0	533	654	
7	0	0	0	0	531	654	
8	0	0	0	0	527	654	
9	0	0	0	0	523	655	
10	0	0	0	0	519	654	
11	0	0	0	0	517	655	
12	0	0	0	0	514	654	
13	0	0	0	0	513	654	
14	0	0	0	0	513	654	
15	0	0	0	0	514	655	
0	0	0	0	0	515	655	
1	0	0	0	0	514	655	
2	0	0	0	0	514	654	
3	0	0	0	0	515	654	
4	0	0	0	0	517	654	
5	0	0	0	0	520	654	
6	0	0	0	0	524	654	
7	0	0	0	0	527	655	
8	0	0	0	0	529	654	
9	0	0	0	0	531	654	
10	0	0	0	0	531	655	
11	0	0	0	0	528	655	
12	0	0	0	0	524	655	
13	0	0	0	0	520	654	
14	0	0	0	0	516	654	
15	0	0	0	0	513	655	
0	0	0	0	0	511	655	
1	0	0	0	0	511	654	
2	0	0	0	0	511	655	
3	0	0	0	0	511	655	
4	0	0	0	0	510	655	
5	0	0	0	0	510	654	
6	0	0	0	0	510	655	
7	0	0	0	0	510	654	
8	0	0	0	0	512	654	
9	0	0	0	0	515	655	
10	0	0	0	0	519	655	
11	0	0	0	0	522	655	
12	0	0	0	0	524	655	
13	0	0	0	0	527	654	
14	0	0	0	0	526	655	
15	0	0	0	0	524	655	
0	0	0	0	0	520	655	
1	0	0	0	0	516	655	
2	0	0	0	0	512	655	
3	0	0	0	0	508	655	
4	0	0	0	0	505	655	
5	0	0	0	0	504	655	
6	0	0	0	0	504	655	
7	0	0	0	0	505	655	
8	0	0	0	0	504	655	
9	0	0	0	0	504	655	
10	0	0	0	0	505	654	
11	0	0	0	0	506	654	
12	0	0	0	0	508	654	
13	0	0	0	0	511	654	
14	0	0	0	0	513	655	
15	0	0	0	0	516	655	
0	0	0	0	0	519	655	
1	0	0	0	0	521	655	
2	0	0	0	0	520	655	
3	0	0	0	0	517	655	
4	0	0	0	0	514	655	
5	0	0	0	0	511	654	
6	0	0	0	0	507	655	
7	0	0	0	0	504	655	
8	0	0	0	0	503	655	
9	0	0	0	0	502	655	
10	0	0	0	0	503	655	
11	0	0	0	0	504	655	
12	0	0	0	0	503	655	
13	0	0	0	0	503	655	
14	0	0	0	0	503	655	
15	0	0	0	0	504	655	
0	0	0	0	0	506	655	
1	0	0	0	0	509	655	
2	0	0	0	0	512	654	
3	0	0	0	0	516	655	
4	0	0	0	0	519	655	
5	0	0	0	0	521	655	
6	0	0	0	0	520	655	
7	0	0	0	0	517	655	
8	0	0	0	0	514	655	
9	0	0	0	0	511	655	
10	0	0	0	0	508	655	
11	0	0	0	0	506	655	
12	0	0	0	0	503	655	
13	0	0	0	0	503	655	
14	0	0	0	0	503	655	
15	0	0	0	0	504	655	
0	0	0	0	0	504	655	
1	0	0	0	0	503	655	
2	0	0	0	0	502	655	
3	0	0	0	0	503	654	
4	0	0	0	0	504	654	
5	0	0	0	0	508	655	
6	0	0	0	0	511	655	
7	0	0	0	0	514	655	
8	0	0	0	0	517	655	
9	0	0	0	0	519	654	
10	0	0	0	0	519	655	
11	0	0	0	0	518	655	
12	0	0	0	0	514	655	
13	0	0	0	0	510	655	
14	0	0	0	0	507	655	
15	0	0	0	0	504	655	
0	0	0	0	0	504	655	
1	0	0	0	0	503	655	
2	0	0	0	0	504	655	
3	0	0	0	0	505	655	
4	0	0	0	0	505	655	
5	0	0	0	0	505	655	
6	0	0	0	0	504	654	
7	0	0	0	0	505	654	
8	0	0	0	0	508	655	
9	0	0	0	0	511	655	
10	0	0	0	0	516	655	
11	0	0	0	0	520	655	
12	0	0	0	0	523	655	
13	0	0	0	0	524	655	
14	0	0	0	0	524	655	
15	0	0	0	0	522	655	
0	0	0	0	0	519	655	
1	0	0	0	0	515	655	
2	0	0	0	0	512	655	
3	0	0	0	0	508	655	
4	0	0	0	0	506	655	
5	0	0	0	0	505	655	
6	0	0	0	0	506	655	
7	0	0	0	0	507	655	
8	0	0	0	0	506	655	
9	0	0	0	0	506	655	
10	0	0	0	0	507	655	
11	0	0	0	0	508	655	
12	0	0	0	0	510	655	
13	0	0	0	0	512	655	
14	0	0	0	0	515	655	
15	0	0	0	0	519	655	
0	0	0	0	0	522	655	
1	0	0	0	0	524	655	
2	0	0	0	0	523	655	
3	0	0	0	0	521	655	
4	0	0	0	0	517	655	
5	0	0	0	0	514	655	
6	0	0	0	0	511	655	
7	0	0	0	0	508	655	
8	0	0	0	0	507	655	
9	0	0	0	0	506	655	
10	0	0	0	0	507	655	
11	0	0	0	0	507	655	
12	0	0	0	0	507	655	
13	0	0	0	0	507	655	
14	0	0	0	0	507	655	
15	0	0	0	0	508	655	
0	0	0	0	0	511	655	
1	0	0	0	0	514	655	
2	0	0	0	0	518	655	
3	0	0	0	0	521	655	
4	0	0	0	0	525	655	
5	0	0	0	0	526	655	
6	0	0	0	0	525	655	
7	0	0	0	0	523	655	
8	0	0	0	0	518	655	
9	0	0	0	0	514	655	
10	0	0	0	0	510	655	
11	0	0	0	0	508	655	
12	0	0	0	0	506	655	
13	0	0	0	0	505	655	
14	0	0	0	0	506	655	
15	0	0	0	0	506	655	
0	0	0	0	0	506	655	
1	0	0	0	0	505	655	
2	0	0	0	0	506	655	
3	0	0	0	0	508	655	
4	0	0	0	0	510	655	
5	0	0	0	0	512	655	
6	0	0	0	0	515	655	
7	0	0	0	0	519	655	
8	0	0	0	0	521	655	
9	0	0	0	0	522	655	
10	0	0	0	0	521	655	
11	0	0	0	0	518	655	
12	0	0	0	0	514	655	
13	0	0	0	0	510	655	
14	0	0	0	0	507	655	
15	0	0	0	0	504	655	
0	0	0	0	0	502	655	
1	0	0	0	0	501	655	
2	0	0	0	0	501	655	
3	0	0	0	0	502	655	
4	0	0	0	0	502	655	
5	0	0	0	0	501	655	
6	0	0	0	0	500	655	
7	0	0	0	0	501	655	
8	0	0	0	0	503	655	
9	0	0	0	0	507	655	
10	0	0	0	0	511	655	
11	0	0	0	0	514	655	
12	0	0	0	0	518	655	
13	0	0	0	0	519	655	
14	0	0	0	0	519	655	
15	0	0	0	0	517	655	
0	0	0	0	0	513	655	
1	0	0	0	0	510	655	
2	0	0	0	0	506	655	
3	0	0	0	0	504	655	
4	0	0	0	0	502	655	
5	0	0	0	0	501	655	
6	0	0	0	0	502	655	
7	0	0	0	0	502	655	
8	0	0	0	0	502	655	
9	0	0	0	0	502	655	
10	0	0	0	0	501	655	
11	0	0	0	0	501	655	
12	0	0	0	0	503	655	
13	0	0	0	0	506	655	
14	0	0	0	0	510	655	
15	0	0	0	0	512	655	
0	0	0	0	0	515	655	
1	0	0	0	0	518	655	
2	0	0	0	0	516	655	
3	0	0	0	0	513	655	
4	0	0	0	0	510	655	
5	0	0	0	0	505	655	
6	0	0	0	0	502	655	
7	0	0	0	0	499	655	
8	0	0	0	0	497	655	
9	0	0	0	0	496	655	
10	0	0	0	0	497	655	
11	0	0	0	0	498	655	
12	0	0	0	0	498	655	
13	0	0	0	0	498	655	
14	0	0	0	0	499	655	
15	0	0	0	0	500	655	
0	0	0	0	0	502	655	
1	0	0	0	0	505	655	
2	0	0	0	0	509	655	
3	0	0	0	0	513	655	
4	0	0	0	0	516	655	
5	0	0	0	0	518	655	
6	0	0	0	0	516	655	
7	0	0	0	0	515	655	
8	0	0	0	0	511	655	
9	0	0	0	0	508	655	
10	0	0	0	0	505	655	
11	0	0	0	0	502	655	
12	0	0	0	0	500	655	
13	0	0	0	0	500	655	
14	0	0	0	0	500	655	
15	0	0	0	0	501	655	
0	0	0	0	0	501	655	
1	0	0	0	0	501	655	
2	0	0	0	0	502	655	
3	0	0	0	0	503	655	
4	0	0	0	0	505	655	
5	0	0	0	0	508	655	
6	0	0	0	0	511	655	
7	0	0	0	0	514	655	
8	0	0	0	0	518	655	
9	0	0	0	0	520	655	
10	0	0	0	0	519	655	
11	0	0	0	0	518	655	
12	0	0	0	0	514	655	
13	0	0	0	0	511	655	
14	0	0	0	0	507	655	
15	0	0	0	0	504	655	
0	0	0	0	0	503	655	
1	0	0	0	0	501	655	
2	0	0	0	0	501	655	
3	0	0	0	0	502	655	
4	0	0	0	0	501	655	
5	0	0	0	0	501	655	
6	0	0	0	0	502	655	
7	0	0	0	0	503	655	
8	0	0	0	0	504	655	
9	0	0	0	0	508	655	
10	0	0	0	0	511	655	
11	0	0	0	0	515	655	
12	0	0	0	0	518	655	
13	0	0	0	0	519	655	
14	0	0	0	0	519	655	
15	0	0	0	0	517	655	
0	0	0	0	0	513	655	
1	0	0	0	0	509	655	
2	0	0	0	0	506	655	
3	0	0	0	0	504	655	
4	0	0	0	0	502	655	
5	0	0	0	0	501	655	
6	0	0	0	0	500	655	
7	0	0	0	0	501	655	
8	0	0	0	0	500	655	
9	0	0	0	0	500	655	
10	0	0	0	0	500	655	
11	0	0	0	0	502	655	
12	0	0	0	0	504	655	
13	0	0	0	0	507	655	
14	0	0	0	0	511	655	
15	0	0	0	0	514	655	
0	0	0	0	0	517	655	
1	0	0	0	0	518	655	
2	0	0	0	0	517	655	
3	0	0	0	0	514	655	
4	0	0	0	0	510	655	
5	0	0	0	0	506	655	
6	0	0	0	0	502	655	
7	0	0	0	0	499	655	
8	0	0	0	0	497	655	
9	0	0	0	0	497	655	
10	0	0	0	0	497	655	
11	0	0	0	0	497	655	
12	0	0	0	0	497	655	
13	0	0	0	0	497	655	
14	0	0	0	0	497	655	
15	0	0	0	0	499	655	
0	0	0	0	0	501	655	
1	0	0	0	0	504	655	
2	0	0	0	0	507	655	
3	0	0	0	0	511	655	
4	0	0	0	0	513	655	
5	0	0	0	0	515	655	
6	0	0	0	0	514	655	
7	0	0	0	0	512	655	
8	0	0	0	0	508	655	
9	0	0	0	0	504	655	
10	0	0	0	0	500	655	
11	0	0	0	0	497	655	
12	0	0	0	0	496	655	
13	0	0	0	0	496	655	
14	0	0	0	0	497	655	
15	0	0	0	0	497	655	
0	0	0	0	0	497	655	
1	0	0	0	0	497	655	
2	0	0	0	0	498	655	
3	0	0	0	0	500	655	
4	0	0	0	0	502	655	
5	0	0	0	0	505	655	
6	0	0	0	0	508	655	
7	0	0	0	0	512	655	
8	0	0	0	0	514	655	
9	0	0	0	0	515	655	
10	0	0	0	0	514	655	
11	0	0	0	0	511	655	
12	0	0	0	0	507	655	
13	0	0	0	0	502	655	
14	0	0	0	0	498	655	
15	0	0	0	0	496	655	
0	0	0	0	0	494	655	
1	0	0	0	0	494	655	
2	0	0	0	0	494	655	
3	0	0	0	0	495	655	
4	0	0	0	0	495	655	
5	0	0	0	0	495	655	
6	0	0	0	0	495	655	
7	0	0	0	0	496	655	
8	0	0	0	0	498	655	
9	0	0	0	0	501	655	
10	0	0	0	0	504	655	
11	0	0	0	0	508	655	
12	0	0	0	0	512	655	
13	0	0	0	0	513	655	
14	0	0	0	0	513	655	
15	0	0	0	0	511	655	
0	0	0	0	0	507	655	
1	0	0	0	0	504	655	
2	0	0	0	0	501	655	
3	0	0	0	0	499	655	
4	0	0	0	0	497	655	
5	0	0	0	0	497	655	
6	0	0	0	0	497	655	
7	0	0	0	0	498	655	
8	0	0	0	0	498	655	
9	0	0	0	0	497	655	
10	0	0	0	0	497	655	
11	0	0	0	0	497	655	
12	0	0	0	0	499	655	
13	0	0	0	0	501	655	
14	0	0	0	0	503	655	
15	0	0	0	0	505	655	
0	0	0	0	0	507	655	
1	0	0	0	0	507	655	
2	0	0	0	0	504	655	
3	0	0	0	0	500	655	
4	0	0	0	0	494	655	
5	0	0	0	0	489	655	
6	0	0	0	0	484	655	
7	0	0	0	0	480	655	
8	0	0	0	0	478	655	
9	0	0	0	0	478	655	
10	0	0	0	0	478	655	
11	0	0	0	0	480	655	
12	0	0	0	0	480	655	
13	0	0	0	0	480	655	
14	0	0	0	0	480	655	
15	0	0	0	0	481	655	
0	0	0	0	0	483	655	
1	0	0	0	0	485	655	
2	0	0	0	0	487	655	
3	0	0	0	0	488	655	
4	0	0	0	0	490	655	
5	0	0	0	0	491	655	
6	0	0	0	0	490	655	
7	0	0	0	0	488	655	
8	0	0	0	0	485	655	
9	0	0	0	0	481	655	
10	0	0	0	0	478	655	
11	0	0	0	0	476	655	
12	0	0	0	0	474	655	
13	0	0	0	0	472	655	
14	0	0	0	0	473	655	
15	0	0	0	0	474	655	
0	0	0	0	0	476	655	
1	0	0	0	0	476	655	
2	0	0	0	0	478	655	
3	0	0	0	0	480	655	
4	0	0	0	0	484	655	
5	0	0	0	0	489	655	
6	0	0	0	0	493	655	
7	0	0	0	0	497	655	
8	0	0	0	0	501	655	
9	0	0	0	0	503	655	
10	0	0	0	0	502	655	
11	0	0	0	0	500	655	
12	0	0	0	0	498	655	
13	0	0	0	0	496	655	
14	0	0	0	0	494	655	
15	0	0	0	0	493	655	
0	0	0	0	0	493	655	
1	0	0	0	0	493	655	
2	0	0	0	0	494	655	
3	0	0	0	0	495	655	
4	0	0	0	0	495	656	
5	0	0	0	0	495	655	
6	0	0	0	0	496	655	
7	0	0	0	0	498	655	
8	0	0	0	0	501	655	
9	0	0	0	0	505	655	
10	0	0	0	0	509	655	
11	0	0	0	0	514	655	
12	0	0	0	0	519	655	
13	0	0	0	0	523	655	
14	0	0	0	0	524	655	
15	0	0	0	0	523	655	
0	0	0	0	0	520	655	
1	0	0	0	0	518	655	
2	0	0	0	0	516	655	
3	0	0	0	0	514	655	
4	0	0	0	0	513	655	
5	0	0	0	0	513	656	
6	0	0	0	0	514	655	
7	0	0	0	0	516	656	
8	0	0	0	0	517	655	
9	0	0	0	0	517	655	
10	0	0	0	0	518	655	
11	0	0	0	0	519	655	
12	0	0	0	0	522	655	
13	0	0	0	0	525	655	
14	0	0	0	0	528	655	
15	0	0	0	0	531	655	
0	0	0	0	0	534	656	
1	0	0	0	0	535	655	
2	0	0	0	0	533	655	
3	0	0	0	0	531	656	
4	0	0	0	0	527	656	
5	0	0	0	0	523	655	
6	0	0	0	0	519	656	
7	0	0	0	0	516	656	
8	0	0	0	0	515	656	
9	0	0	0	0	514	655	
10	0	0	0	0	514	656	
11	0	0	0	0	514	656	
12	0	0	0	0	514	656	
13	0	0	0	0	514	656	
14	0	0	0	0	515	655	
15	0	0	0	0	516	656	
0	0	0	0	0	518	655	
1	0	0	0	0	520	656	
2	0	0	0	0	523	655	
3	0	0	0	0	527	655	
4	0	0	0	0	529	656	
5	0	0	0	0	531	656	
6	0	0	0	0	530	655	
7	0	0	0	0	527	656	
8	0	0	0	0	524	655	
9	0	0	0	0	520	656	
10	0	0	0	0	516	656	
11	0	0	0	0	514	656	
12	0	0	0	0	512	656	
13	0	0	0	0	512	656	
14	0	0	0	0	512	656	
15	0	0	0	0	512	656	
0	0	0	0	0	513	656	
1	0	0	0	0	512	656	
2	0	0	0	0	512	656	
3	0	0	0	0	513	655	
4	0	0	0	0	515	656	
5	0	0	0	0	518	656	
6	0	0	0	0	520	655	
7	0	0	0	0	523	656	
8	0	0	0	0	526	656	
9	0	0	0	0	527	656	
10	0	0	0	0	526	656	
11	0	0	0	0	522	656	
12	0	0	0	0	518	655	
13	0	0	0	0	514	656	
14	0	0	0	0	511	656	
15	0	0	0	0	508	656	
0	0	0	0	0	506	656	
1	0	0	0	0	505	656	
2	0	0	0	0	507	656	
3	0	0	0	0	508	656	
4	0	0	0	0	508	656	
5	0	0	0	0	508	656	
6	0	0	0	0	509	656	
7	0	0	0	0	511	656	
8	0	0	0	0	514	656	
9	0	0	0	0	518	656	
10	0	0	0	0	522	656	
11	0	0	0	0	527	656	
12	0	0	0	0	532	656	
13	0	0	0	0	536	656	
14	0	0	0	0	536	656	
15	0	0	0	0	534	656	
0	0	0	0	0	531	656	
1	0	0	0	0	526	656	
2	0	0	0	0	520	656	
3	0	0	0	0	515	656	
4	0	0	0	0	509	656	
5	0	0	0	0	503	656	
6	0	0	0	0	497	656	
7	0	0	0	0	491	656	
8	0	0	0	0	480	656	
9	0	0	0	0	469	656	
10	0	0	0	0	456	655	
11	0	0	0	0	443	656	
12	0	0	0	0	431	655	
13	0	0	0	0	419	656	
14	0	0	0	0	407	656	
15	0	0	0	0	393	656	
0	0	0	0	0	377	656	
1	0	0	0	0	358	656	
2	0	0	0	0	333	656	
3	0	0	0	0	300	656	
4	0	0	0	0	261	656	
5	0	0	0	0	217	656	
6	0	0	0	0	174	656	
7	0	0	0	0	128	656	
8	0	0	0	0	81	656	
9	0	0	0	0	31	656	
10	0	0	0	0	0	655	
11	0	0	0	0	0	656	
12	0	0	0	0	0	656	
13	0	0	0	0	0	656	
14	0	0	0	0	0	656	
15	0	0	0	0	0	655	
0	0	0	0	0	0	655	
1	0	0	0	0	0	655	
2	0	0	0	0	0	655	
3	0	0	0	0	0	655	
4	0	0	0	0	0	655	
5	0	0	0	0	0	655	
6	0	0	0	0	0	655	
7	0	0	0	0	52	655	
8	0	0	0	0	126	655	
9	0	0	0	0	214	656	
10	0	0	0	0	315	655	
11	0	0	0	0	416	655	
12	0	0	0	0	511	655	
13	0	0	0	0	600	655	
14	0	0	0	0	677	656	
15	0	0	0	0	739	655	
0	0	0	0	0	785	655	
1	0	0	0	0	819	655	
2	0	0	0	0	843	655	
3	0	0	0	0	858	655	
4	0	0	0	0	868	655	
5	0	0	0	0	873	655	
6	0	0	0	0	874	655	
7	0	0	0	0	869	655	
8	0	0	0	0	861	656	
9	0	0	0	0	847	656	
10	0	0	0	0	829	656	
11	0	0	0	0	810	656	
12	0	0	0	0	790	655	
13	0	0	0	0	769	655	
14	0	0	0	0	750	655	
15	0	0	0	0	733	656	
0	0	0	0	0	719	656	
1	0	0	0	0	705	656	
2	0	0	0	0	693	655	
3	0	0	0	0	682	656	
4	0	0	0	0	672	656	
5	0	0	0	0	662	656	
6	0	0	0	0	653	656	
7	0	0	0	0	646	656	
8	0	0	0	0	641	655	
9	0	0	0	0	638	656	
10	0	0	0	0	636	656	
11	0	0	0	0	634	655	
12	0	0	0	0	633	656	
13	0	0	0	0	630	656	
14	0	0	0	0	626	656	
15	0	0	0	0	622	656	
0	0	0	0	0	616	656	
1	0	0	0	0	611	656	
2	0	0	0	0	607	656	
3	0	0	0	0	604	656	
4	0	0	0	0	601	656	
5	0	0	0	0	600	656	
6	0	0	0	0	599	656	
7	0	0	0	0	598	656	
8	0	0	0	0	596	656	
9	0	0	0	0	595	656	
10	0	0	0	0	595	656	
11	0	0	0	0	595	656	
12	0	0	0	0	597	656	
13	0	0	0	0	599	656	
14	0	0	0	0	601	656	
15	0	0	0	0	604	656	
0	0	0	0	0	607	656	
1	0	0	0	0	607	656	
2	0	0	0	0	604	656	
3	0	0	0	0	600	656	
4	0	0	0	0	595	656	
5	0	0	0	0	590	656	
6	0	0	0	0	586	656	
7	0	0	0	0	582	656	
8	0	0	0	0	579	656	
9	0	0	0	0	577	656	
10	0	0	0	0	576	656	
11	0	0	0	0	576	656	
12	0	0	0	0	575	656	
13	0	0	0	0	573	656	
14	0	0	0	0	573	656	
15	0	0	0	0	573	656	
0	0	0	0	0	574	656	
1	0	0	0	0	576	656	
2	0	0	0	0	578	656	
3	0	0	0	0	580	656	
4	0	0	0	0	582	656	
5	0	0	0	0	583	656	
6	0	0	0	0	580	656	
7	0	0	0	0	576	656	
8	0	0	0	0	572	656	
9	0	0	0	0	567	656	
10	0	0	0	0	563	656	
11	0	0	0	0	560	656	
12	0	0	0	0	557	656	
13	0	0	0	0	556	656	
14	0	0	0	0	555	656	
15	0	0	0	0	555	656	
0	0	0	0	0	553	656	
1	0	0	0	0	552	656	
2	0	0	0	0	551	656	
3	0	0	0	0	551	656	
4	0	0	0	0	552	656	
5	0	0	0	0	556	656	
6	0	0	0	0	558	656	
7	0	0	0	0	560	656	
8	0	0	0	0	563	656	
9	0	0	0	0	563	656	
10	0	0	0	0	562	656	
11	0	0	0	0	558	656	
12	0	0	0	0	553	656	
13	0	0	0	0	548	656	
14	0	0	0	0	543	656	
15	0	0	0	0	540	656	
0	0	0	0	0	537	656	
1	0	0	0	0	536	656	
2	0	0	0	0	537	656	
3	0	0	0	0	537	656	
4	0	0	0	0	536	656	
5	0	0	0	0	536	656	
6	0	0	0	0	536	656	
7	0	0	0	0	537	656	
8	0	0	0	0	538	656	
9	0	0	0	0	541	656	
10	0	0	0	0	544	656	
11	0	0	0	0	547	656	
12	0	0	0	0	550	657	
13	0	0	0	0	551	656	
14	0	0	0	0	551	656	
15	0	0	0	0	548	656	
0	0	0	0	0	543	656	
1	0	0	0	0	539	656	
2	0	0	0	0	536	656	
3	0	0	0	0	533	657	
4	0	0	0	0	531	657	
5	0	0	0	0	530	656	
6	0	0	0	0	530	656	
7	0	0	0	0	529	656	
8	0	0	0	0	528	657	
9	0	0	0	0	527	656	
10	0	0	0	0	527	656	
11	0	0	0	0	528	656	
12	0	0	0	0	529	656	
13	0	0	0	0	532	656	
14	0	0	0	0	535	656	
15	0	0	0	0	538	656	
0	0	0	0	0	541	656	
1	0	0	0	0	541	656	
2	0	0	0	0	539	657	
3	0	0	0	0	536	656	
4	0	0	0	0	532	657	
5	0	0	0	0	527	656	
6	0	0	0	0	524	656	
7	0	0	0	0	520	657	
8	0	0	0	0	518	656	
9	0	0	0	0	517	657	
10	0	0	0	0	517	657	
11	0	0	0	0	516	657	
12	0	0	0	0	515	657	
13	0	0	0	0	514	656	
14	0	0	0	0	514	656	
15	0	0	0	0	515	656	
0	0	0	0	0	516	656	
1	0	0	0	0	519	656	
2	0	0	0	0	522	657	
3	0	0	0	0	525	656	
4	0	0	0	0	528	657	
5	0	0	0	0	529	656	
6	0	0	0	0	527	657	
7	0	0	0	0	524	656	
8	0	0	0	0	519	657	
9	0	0	0	0	515	657	
10	0	0	0	0	512	657	
11	0	0	0	0	509	657	
12	0	0	0	0	507	657	
13	0	0	0	0	506	656	
14	0	0	0	0	506	657	
15	0	0	0	0	506	657	
0	0	0	0	0	506	657	
1	0	0	0	0	505	657	
2	0	0	0	0	504	657	
3	0	0	0	0	505	657	
4	0	0	0	0	505	656	
5	0	0	0	0	508	657	
6	0	0	0	0	511	656	
7	0	0	0	0	512	656	
8	0	0	0	0	515	657	
9	0	0	0	0	516	657	
10	0	0	0	0	515	657	
11	0	0	0	0	511	657	
12	0	0	0	0	507	657	
13	0	0	0	0	503	657	
14	0	0	0	0	498	657	
15	0	0	0	0	494	657	
0	0	0	0	0	492	657	
1	0	0	0	0	491	657	
2	0	0	0	0	491	657	
3	0	0	0	0	491	657	
4	0	0	0	0	489	656	
5	0	0	0	0	488	657	
6	0	0	0	0	488	657	
7	0	0	0	0	489	657	
8	0	0	0	0	490	657	
9	0	0	0	0	493	657	
10	0	0	0	0	495	657	
11	0	0	0	0	498	657	
12	0	0	0	0	501	657	
13	0	0	0	0	502	657	
14	0	0	0	0	499	657	
15	0	0	0	0	496	657	
0	0	0	0	0	491	657	
1	0	0	0	0	487	657	
2	0	0	0	0	482	657	
3	0	0	0	0	479	657	
4	0	0	0	0	477	657	
5	0	0	0	0	476	657	
6	0	0	0	0	476	657	
7	0	0	0	0	476	657	
8	0	0	0	0	475	657	
9	0	0	0	0	474	657	
10	0	0	0	0	474	657	
11	0	0	0	0	475	657	
12	0	0	0	0	476	657	
13	0	0	0	0	478	657	
14	0	0	0	0	481	657	
15	0	0	0	0	484	657	
0	0	0	0	0	487	657	
1	0	0	0	0	487	657	
2	0	0	0	0	485	657	
3	0	0	0	0	481	657	
4	0	0	0	0	477	657	
5	0	0	0	0	472	657	
6	0	0	0	0	468	657	
7	0	0	0	0	465	657	
8	0	0	0	0	462	657	
9	0	0	0	0	461	657	
10	0	0	0	0	461	657	
11	0	0	0	0	460	657	
12	0	0	0	0	460	657	
13	0	0	0	0	459	657	
14	0	0	0	0	460	657	
15	0	0	0	0	461	657	
0	0	0	0	0	463	657	
1	0	0	0	0	467	657	
2	0	0	0	0	470	657	
3	0	0	0	0	473	657	
4	0	0	0	0	476	657	
5	0	0	0	0	476	657	
6	0	0	0	0	474	657	
7	0	0	0	0	471	657	
8	0	0	0	0	467	656	
9	0	0	0	0	463	657	
10	0	0	0	0	460	657	
11	0	0	0	0	457	657	
12	0	0	0	0	455	657	
13	0	0	0	0	455	657	
14	0	0	0	0	455	657	
15	0	0	0	0	456	657	
0	0	0	0	0	456	657	
1	0	0	0	0	457	657	
2	0	0	0	0	458	657	
3	0	0	0	0	459	657	
4	0	0	0	0	461	657	
5	0	0	0	0	465	657	
6	0	0	0	0	470	657	
7	0	0	0	0	474	657	
8	0	0	0	0	478	657	
9	0	0	0	0	480	657	
10	0	0	0	0	480	657	
11	0	0	0	0	479	657	
12	0	0	0	0	476	657	
13	0	0	0	0	474	657	
14	0	0	0	0	472	657	
15	0	0	0	0	472	657	
0	0	0	0	0	472	657	
1	0	0	0	0	474	657	
2	0	0	0	0	476	657	
3	0	0	0	0	478	657	
4	0	0	0	0	480	657	
5	0	0	0	0	482	657	
6	0	0	0	0	483	657	
7	0	0	0	0	487	657	
8	0	0	0	0	491	657	
9	0	0	0	0	496	657	
10	0	0	0	0	500	657	
11	0	0	0	0	505	657	
12	0	0	0	0	510	657	
13	0	0	0	0	513	657	
14	0	0	0	0	513	657	
15	0	0	0	0	512	657	
0	0	0	0	0	510	657	
1	0	0	0	0	509	657	
2	0	0	0	0	507	657	
3	0	0	0	0	506	657	
4	0	0	0	0	505	657	
5	0	0	0	0	506	657	
6	0	0	0	0	508	658	
7	0	0	0	0	510	657	
8	0	0	0	0	511	657	
9	0	0	0	0	512	657	
10	0	0	0	0	514	657	
11	0	0	0	0	516	657	
12	0	0	0	0	520	657	
13	0	0	0	0	526	657	
14	0	0	0	0	531	658	
15	0	0	0	0	536	657	
0	0	0	0	0	540	658	
1	0	0	0	0	542	658	
2	0	0	0	0	542	658	
3	0	0	0	0	540	658	
4	0	0	0	0	537	657	
5	0	0	0	0	535	658	
6	0	0	0	0	532	658	
7	0	0	0	0	531	658	
8	0	0	0	0	531	658	
9	0	0	0	0	531	658	
10	0	0	0	0	533	658	
11	0	0	0	0	533	658	
12	0	0	0	0	533	658	
13	0	0	0	0	533	658	
14	0	0	0	0	534	658	
15	0	0	0	0	537	658	
0	0	0	0	0	540	658	
1	0	0	0	0	545	658	
2	0	0	0	0	549	658	
3	0	0	0	0	553	658	
4	0	0	0	0	556	658	
5	0	0	0	0	558	658	
6	0	0	0	0	556	658	
7	0	0	0	0	553	658	
8	0	0	0	0	550	658	
9	0	0	0	0	547	658	
10	0	0	0	0	544	658	
11	0	0	0	0	542	658	
12	0	0	0	0	540	658	
13	0	0	0	0	540	658	
14	0	0	0	0	541	658	
15	0	0	0	0	542	658	
0	0	0	0	0	543	658	
1	0	0	0	0	543	658	
2	0	0	0	0	543	658	
3	0	0	0	0	545	658	
4	0	0	0	0	547	658	
5	0	0	0	0	550	658	
6	0	0	0	0	554	658	
7	0	0	0	0	558	658	
8	0	0	0	0	560	658	
9	0	0	0	0	561	658	
10	0	0	0	0	560	658	
11	0	0	0	0	556	658	
12	0	0	0	0	552	658	
13	0	0	0	0	549	659	
14	0	0	0	0	545	659	
15	0	0	0	0	542	659	
0	0	0	0	0	539	658	
1	0	0	0	0	538	659	
2	0	0	0	0	538	659	
3	0	0	0	0	538	658	
4	0	0	0	0	538	658	
5	0	0	0	0	537	658	
6	0	0	0	0	537	659	
7	0	0	0	0	538	658	
8	0	0	0	0	541	659	
9	0	0	0	0	544	658	
10	0	0	0	0	547	658	
11	0	0	0	0	551	658	
12	0	0	0	0	553	658	
13	0	0	0	0	555	658	
14	0	0	0	0	553	659	
15	0	0	0	0	550	659	
0	0	0	0	0	545	658	
1	0	0	0	0	542	659	
2	0	0	0	0	538	659	
3	0	0	0	0	536	659	
4	0	0	0	0	534	659	
5	0	0	0	0	534	659	
6	0	0	0	0	535	658	
7	0	0	0	0	535	659	
8	0	0	0	0	535	659	
9	0	0	0	0	535	658	
10	0	0	0	0	535	658	
11	0	0	0	0	536	659	
12	0	0	0	0	537	659	
13	0	0	0	0	540	659	
14	0	0	0	0	543	658	
15	0	0	0	0	546	659	
0	0	0	0	0	548	659	
1	0	0	0	0	548	659	
2	0	0	0	0	546	659	
3	0	0	0	0	542	659	
4	0	0	0	0	537	659	
5	0	0	0	0	533	659	
6	0	0	0	0	529	659	
7	0	0	0	0	526	659	
8	0	0	0	0	524	659	
9	0	0	0	0	523	659	
10	0	0	0	0	523	659	
11	0	0	0	0	523	659	
12	0	0	0	0	521	659	
13	0	0	0	0	520	659	
14	0	0	0	0	520	659	
15	0	0	0	0	522	659	
0	0	0	0	0	523	659	
1	0	0	0	0	526	659	
2	0	0	0	0	529	659	
3	0	0	0	0	532	659	
4	0	0	0	0	535	659	
5	0	0	0	0	536	659	
6	0	0	0	0	534	659	
7	0	0	0	0	530	659	
8	0	0	0	0	526	659	
9	0	0	0	0	521	659	
10	0	0	0	0	518	659	
11	0	0	0	0	515	659	
12	0	0	0	0	513	659	
13	0	0	0	0	513	659	
14	0	0	0	0	513	659	
15	0	0	0	0	513	659	
0	0	0	0	0	513	659	
1	0	0	0	0	513	659	
2	0	0	0	0	514	659	
3	0	0	0	0	515	659	
4	0	0	0	0	518	659	
5	0	0	0	0	522	659	
6	0	0	0	0	526	659	
7	0	0	0	0	529	659	
8	0	0	0	0	532	659	
9	0	0	0	0	532	659	
10	0	0	0	0	531	659	
11	0	0	0	0	527	659	
12	0	0	0	0	524	659	
13	0	0	0	0	520	659	
14	0	0	0	0	517	659	
15	0	0	0	0	514	659	
0	0	0	0	0	512	659	
1	0	0	0	0	511	659	
2	0	0	0	0	511	659	
3	0	0	0	0	512	659	
4	0	0	0	0	512	659	
5	0	0	0	0	512	659	
6	0	0	0	0	512	659	
7	0	0	0	0	513	659	
8	0	0	0	0	515	659	
9	0	0	0	0	519	659	
10	0	0	0	0	522	659	
11	0	0	0	0	525	659	
12	0	0	0	0	527	659	
13	0	0	0	0	528	659	
14	0	0	0	0	526	659	
15	0	0	0	0	523	659	
0	0	0	0	0	518	659	
1	0	0	0	0	514	659	
2	0	0	0	0	511	659	
3	0	0	0	0	509	659	
4	0	0	0	0	508	660	
5	0	0	0	0	508	660	
6	0	0	0	0	509	659	
7	0	0	0	0	509	660	
8	0	0	0	0	509	659	
9	0	0	0	0	509	659	
10	0	0	0	0	510	659	
11	0	0	0	0	511	660	
12	0	0	0	0	513	660	
13	0	0	0	0	516	660	
14	0	0	0	0	519	659	
15	0	0	0	0	522	660	
0	0	0	0	0	525	659	
1	0	0	0	0	526	659	
2	0	0	0	0	524	660	
3	0	0	0	0	521	660	
4	0	0	0	0	517	660	
5	0	0	0	0	513	659	
6	0	0	0	0	509	660	
7	0	0	0	0	506	660	
8	0	0	0	0	504	660	
9	0	0	0	0	504	660	
10	0	0	0	0	506	660	
11	0	0	0	0	507	660	
12	0	0	0	0	507	660	
13	0	0	0	0	507	660	
14	0	0	0	0	508	660	
15	0	0	0	0	510	660	
0	0	0	0	0	512	660	
1	0	0	0	0	515	660	
2	0	0	0	0	518	660	
3	0	0	0	0	522	660	
4	0	0	0	0	525	660	
5	0	0	0	0	526	660	
6	0	0	0	0	525	660	
7	0	0	0	0	522	660	
8	0	0	0	0	518	660	
9	0	0	0	0	515	660	
10	0	0	0	0	511	660	
11	0	0	0	0	508	660	
12	0	0	0	0	507	660	
13	0	0	0	0	507	660	
14	0	0	0	0	508	660	
15	0	0	0	0	509	660	
0	0	0	0	0	508	660	
1	0	0	0	0	509	660	
2	0	0	0	0	511	660	
3	0	0	0	0	512	660	
4	0	0	0	0	513	660	
5	0	0	0	0	516	660	
6	0	0	0	0	519	660	
7	0	0	0	0	522	660	
8	0	0	0	0	525	660	
9	0	0	0	0	526	660	
10	0	0	0	0	524	660	
11	0	0	0	0	522	660	
12	0	0	0	0	518	660	
13	0	0	0	0	515	660	
14	0	0	0	0	512	660	
15	0	0	0	0	510	660	
0	0	0	0	0	509	660	
1	0	0	0	0	508	660	
2	0	0	0	0	508	660	
3	0	0	0	0	509	660	
4	0	0	0	0	510	660	
5	0	0	0	0	509	660	
6	0	0	0	0	510	660	
7	0	0	0	0	511	660	
8	0	0	0	0	513	661	
9	0	0	0	0	516	661	
10	0	0	0	0	520	661	
11	0	0	0	0	524	661	
12	0	0	0	0	526	661	
13	0	0	0	0	527	661	
14	0	0	0	0	526	661	
15	0	0	0	0	523	661	
0	0	0	0	0	519	661	
1	0	0	0	0	515	661	
2	0	0	0	0	512	661	
3	0	0	0	0	510	661	
4	0	0	0	0	508	661	
5	0	0	0	0	508	661	
6	0	0	0	0	508	661	
7	0	0	0	0	508	661	
8	0	0	0	0	507	661	
9	0	0	0	0	507	661	
10	0	0	0	0	507	661	
11	0	0	0	0	508	661	
12	0	0	0	0	510	661	
13	0	0	0	0	512	661	
14	0	0	0	0	515	661	
15	0	0	0	0	518	661	
0	0	0	0	0	520	661	
1	0	0	0	0	519	661	
2	0	0	0	0	516	661	
3	0	0	0	0	512	661	
4	0	0	0	0	506	661	
5	0	0	0	0	502	661	
6	0	0	0	0	498	661	
7	0	0	0	0	496	661	
8	0	0	0	0	494	661	
9	0	0	0	0	494	661	
10	0	0	0	0	494	662	
11	0	0	0	0	495	662	
12	0	0	0	0	495	662	
13	0	0	0	0	494	661	
14	0	0	0	0	494	661	
15	0	0	0	0	496	662	
0	0	0	0	0	499	661	
1	0	0	0	0	503	662	
2	0	0	0	0	506	662	
3	0	0	0	0	510	662	
4	0	0	0	0	513	662	
5	0	0	0	0	514	661	
6	0	0	0	0	513	662	
7	0	0	0	0	511	662	
8	0	0	0	0	506	661	
9	0	0	0	0	501	662	
10	0	0	0	0	498	662	
11	0	0	0	0	496	662	
12	0	0	0	0	494	662	
13	0	0	0	0	494	662	
14	0	0	0	0	496	662	
15	0	0	0	0	496	662	
0	0	0	0	0	496	662	
1	0	0	0	0	497	662	
2	0	0	0	0	498	662	
3	0	0	0	0	500	662	
4	0	0	0	0	503	662	
5	0	0	0	0	506	662	
6	0	0	0	0	510	662	
7	0	0	0	0	513	662	
8	0	0	0	0	517	662	
9	0	0	0	0	517	662	
10	0	0	0	0	515	662	
11	0	0	0	0	512	662	
12	0	0	0	0	508	662	
13	0	0	0	0	504	662	
14	0	0	0	0	500	662	
15	0	0	0	0	498	662	
0	0	0	0	0	497	662	
1	0	0	0	0	497	662	
2	0	0	0	0	498	662	
3	0	0	0	0	498	662	
4	0	0	0	0	498	662	
5	0	0	0	0	497	662	
6	0	0	0	0	497	662	
7	0	0	0	0	499	662	
8	0	0	0	0	503	662	
9	0	0	0	0	506	662	
10	0	0	0	0	509	662	
11	0	0	0	0	512	662	
12	0	0	0	0	515	663	
13	0	0	0	0	515	662	
14	0	0	0	0	514	662	
15	0	0	0	0	511	662	
0	0	0	0	0	507	662	
1	0	0	0	0	503	663	
2	0	0	0	0	500	662	
3	0	0	0	0	498	662	
4	0	0	0	0	497	663	
5	0	0	0	0	497	662	
6	0	0	0	0	499	663	
7	0	0	0	0	499	663	
8	0	0	0	0	499	662	
9	0	0	0	0	499	662	
10	0	0	0	0	499	662	
11	0	0	0	0	501	662	
12	0	0	0	0	503	662	
13	0	0	0	0	506	663	
14	0	0	0	0	509	663	
15	0	0	0	0	513	663	
0	0	0	0	0	516	663	
1	0	0	0	0	516	662	
2	0	0	0	0	515	663	
3	0	0	0	0	511	663	
4	0	0	0	0	507	663	
5	0	0	0	0	504	663	
6	0	0	0	0	500	663	
7	0	0	0	0	498	663	
8	0	0	0	0	495	663	
9	0	0	0	0	495	663	
10	0	0	0	0	496	663	
11	0	0	0	0	496	663	
12	0	0	0	0	495	663	
13	0	0	0	0	494	663	
14	0	0	0	0	494	663	
15	0	0	0	0	497	663	
0	0	0	0	0	500	663	
1	0	0	0	0	504	663	
2	0	0	0	0	507	663	
3	0	0	0	0	510	663	
4	0	0	0	0	513	663	
5	0	0	0	0	514	663	
6	0	0	0	0	513	663	
7	0	0	0	0	511	663	
8	0	0	0	0	507	663	
9	0	0	0	0	504	663	
10	0	0	0	0	500	663	
11	0	0	0	0	499	663	
12	0	0	0	0	497	663	
13	0	0	0	0	497	663	
14	0	0	0	0	498	664	
15	0	0	0	0	498	663	
0	0	0	0	0	498	663	
1	0	0	0	0	498	663	
2	0	0	0	0	499	663	
3	0	0	0	0	501	663	
4	0	0	0	0	504	663	
5	0	0	0	0	508	663	
6	0	0	0	0	512	663	
7	0	0	0	0	515	663	
8	0	0	0	0	518	663	
9	0	0	0	0	519	664	
10	0	0	0	0	517	663	
11	0	0	0	0	513	664	
12	0	0	0	0	509	664	
13	0	0	0	0	505	664	
14	0	0	0	0	502	664	
15	0	0	0	0	500	664	
0	0	0	0	0	498	664	
1	0	0	0	0	498	664	
2	0	0	0	0	498	663	
3	0	0	0	0	499	664	
4	0	0	0	0	499	664	
5	0	0	0	0	499	663	
6	0	0	0	0	500	664	
7	0	0	0	0	502	664	
8	0	0	0	0	504	664	
9	0	0	0	0	508	664	
10	0	0	0	0	511	664	
11	0	0	0	0	514	663	
12	0	0	0	0	517	664	
13	0	0	0	0	518	664	
14	0	0	0	0	517	664	
15	0	0	0	0	514	664	
0	0	0	0	0	510	664	
1	0	0	0	0	507	664	
2	0	0	0	0	503	664	
3	0	0	0	0	502	664	
4	0	0	0	0	501	664	
5	0	0	0	0	500	664	
6	0	0	0	0	500	664	
7	0	0	0	0	500	664	
8	0	0	0	0	500	664	
9	0	0	0	0	499	664	
10	0	0	0	0	500	664	
11	0	0	0	0	503	664	
12	0	0	0	0	505	664	
13	0	0	0	0	508	664	
14	0	0	0	0	512	664	
15	0	0	0	0	515	664	
0	0	0	0	0	519	664	
1	0	0	0	0	519	664	
2	0	0	0	0	518	664	
3	0	0	0	0	514	664	
4	0	0	0	0	511	664	
5	0	0	0	0	507	664	
6	0	0	0	0	504	664	
7	0	0	0	0	502	664	
8	0	0	0	0	501	664	
9	0	0	0	0	500	664	
10	0	0	0	0	500	664	
11	0	0	0	0	500	664	
12	0	0	0	0	500	664	
13	0	0	0	0	499	664	
14	0	0	0	0	500	664	
15	0	0	0	0	502	664	
0	0	0	0	0	505	664	
1	0	0	0	0	508	664	
2	0	0	0	0	512	664	
3	0	0	0	0	515	664	
4	0	0	0	0	518	664	
5	0	0	0	0	519	664	
6	0	0	0	0	517	664	
7	0	0	0	0	513	665	
8	0	0	0	0	510	664	
9	0	0	0	0	507	665	
10	0	0	0	0	503	664	
11	0	0	0	0	501	664	
12	0	0	0	0	499	664	
13	0	0	0	0	499	664	
14	0	0	0	0	500	665	
15	0	0	0	0	500	664	
0	0	0	0	0	499	664	
1	0	0	0	0	499	664	
2	0	0	0	0	500	664	
3	0	0	0	0	501	664	
4	0	0	0	0	504	664	
5	0	0	0	0	507	664	
6	0	0	0	0	510	664	
7	0	0	0	0	513	665	
8	0	0	0	0	515	665	
9	0	0	0	0	516	665	
10	0	0	0	0	515	665	
11	0	0	0	0	512	665	
12	0	0	0	0	508	664	
13	0	0	0	0	505	665	
14	0	0	0	0	502	665	
15	0	0	0	0	501	665	
0	0	0	0	0	500	665	
1	0	0	0	0	499	665	
2	0	0	0	0	499	665	
3	0	0	0	0	500	665	
4	0	0	0	0	500	665	
5	0	0	0	0	501	665	
6	0	0	0	0	502	665	
7	0	0	0	0	504	665	
8	0	0	0	0	506	665	
9	0	0	0	0	510	665	
10	0	0	0	0	512	665	
11	0	0	0	0	515	665	
12	0	0	0	0	519	665	
13	0	0	0	0	519	665	
14	0	0	0	0	517	665	
15	0	0	0	0	512	665	
0	0	0	0	0	508	665	
1	0	0	0	0	503	665	
2	0	0	0	0	499	665	
3	0	0	0	0	497	665	
4	0	0	0	0	495	665	
5	0	0	0	0	493	665	
6	0	0	0	0	492	665	
7	0	0	0	0	490	665	
8	0	0	0	0	488	665	
9	0	0	0	0	486	665	
10	0	0	0	0	485	665	
11	0	0	0	0	485	665	
12	0	0	0	0	487	665	
13	0	0	0	0	488	665	
14	0	0	0	0	492	665	
15	0	0	0	0	496	665	
0	0	0	0	0	499	666	
1	0	0	0	0	501	665	
2	0	0	0	0	500	665	
3	0	0	0	0	497	665	
4	0	0	0	0	494	665	
5	0	0	0	0	489	665	
6	0	0	0	0	485	665	
7	0	0	0	0	482	665	
8	0	0	0	0	480	665	
9	0	0	0	0	479	666	
10	0	0	0	0	479	666	
11	0	0	0	0	479	666	
12	0	0	0	0	478	666	
13	0	0	0	0	478	666	
14	0	0	0	0	478	665	
15	0	0	0	0	480	666	
0	0	0	0	0	483	665	
1	0	0	0	0	486	666	
2	0	0	0	0	489	665	
3	0	0	0	0	492	665	
4	0	0	0	0	496	666	
5	0	0	0	0	498	665	
6	0	0	0	0	497	665	
7	0	0	0	0	495	666	
8	0	0	0	0	492	666	
9	0	0	0	0	490	666	
10	0	0	0	0	488	666	
11	0	0	0	0	487	666	
12	0	0	0	0	486	666	
13	0	0	0	0	486	666	
14	0	0	0	0	488	666	
15	0	0	0	0	489	666	
0	0	0	0	0	490	666	
1	0	0	0	0	491	666	
2	0	0	0	0	493	666	
3	0	0	0	0	496	666	
4	0	0	0	0	499	666	
5	0	0	0	0	504	666	
6	0	0	0	0	508	666	
7	0	0	0	0	512	666	
8	0	0	0	0	516	666	
9	0	0	0	0	518	666	
10	0	0	0	0	516	666	
11	0	0	0	0	514	666	
12	0	0	0	0	511	666	
13	0	0	0	0	509	667	
14	0	0	0	0	508	666	
15	0	0	0	0	507	666	
0	0	0	0	0	508	667	
1	0	0	0	0	510	666	
2	0	0	0	0	512	666	
3	0	0	0	0	513	666	
4	0	0	0	0	514	666	
5	0	0	0	0	516	667	
6	0	0	0	0	518	666	
7	0	0	0	0	521	666	
8	0	0	0	0	525	666	
9	0	0	0	0	530	667	
10	0	0	0	0	535	666	
11	0	0	0	0	540	666	
12	0	0	0	0	543	667	
13	0	0	0	0	544	667	
14	0	0	0	0	543	667	
15	0	0	0	0	541	667	
0	0	0	0	0	537	666	
1	0	0	0	0	534	667	
2	0	0	0	0	530	667	
3	0	0	0	0	527	667	
4	0	0	0	0	527	667	
5	0	0	0	0	527	667	
6	0	0	0	0	528	667	
7	0	0	0	0	529	667	
8	0	0	0	0	528	667	
9	0	0	0	0	528	667	
10	0	0	0	0	528	666	
11	0	0	0	0	529	667	
12	0	0	0	0	531	667	
13	0	0	0	0	534	667	
14	0	0	0	0	536	667	
15	0	0	0	0	540	667	
0	0	0	0	0	543	667	
1	0	0	0	0	542	667	
2	0	0	0	0	541	667	
3	0	0	0	0	538	667	
4	0	0	0	0	534	667	
5	0	0	0	0	530	667	
6	0	0	0	0	527	667	
7	0	0	0	0	525	667	
8	0	0	0	0	524	667	
9	0	0	0	0	523	667	
10	0	0	0	0	524	667	
11	0	0	0	0	524	667	
12	0	0	0	0	523	667	
13	0	0	0	0	524	667	
14	0	0	0	0	524	667	
15	0	0	0	0	526	667	
0	0	0	0	0	528	667	
1	0	0	0	0	532	667	
2	0	0	0	0	535	667	
3	0	0	0	0	537	667	
4	0	0	0	0	540	667	
5	0	0	0	0	542	667	
6	0	0	0	0	540	668	
7	0	0	0	0	537	667	
8	0	0	0	0	533	667	
9	0	0	0	0	529	668	
10	0	0	0	0	526	668	
11	0	0	0	0	523	668	
12	0	0	0	0	520	667	
13	0	0	0	0	519	667	
14	0	0	0	0	518	668	
15	0	0	0	0	516	668	
0	0	0	0	0	516	667	
1	0	0	0	0	515	668	
2	0	0	0	0	515	667	
3	0	0	0	0	517	668	
4	0	0	0	0	519	667	
5	0	0	0	0	523	668	
6	0	0	0	0	526	667	
7	0	0	0	0	529	668	
8	0	0	0	0	532	668	
9	0	0	0	0	532	668	
10	0	0	0	0	532	668	
11	0	0	0	0	529	668	
12	0	0	0	0	527	668	
13	0	0	0	0	524	668	
14	0	0	0	0	522	668	
15	0	0	0	0	521	668	
0	0	0	0	0	522	668	
1	0	0	0	0	523	668	
2	0	0	0	0	526	668	
3	0	0	0	0	527	668	
4	0	0	0	0	526	668	
5	0	0	0	0	524	668	
6	0	0	0	0	522	668	
7	0	0	0	0	519	668	
8	0	0	0	0	516	668	
9	0	0	0	0	513	668	
10	0	0	0	0	510	668	
11	0	0	0	0	505	668	
12	0	0	0	0	498	668	
13	0	0	0	0	486	668	
14	0	0	0	0	471	668	
15	0	0	0	0	452	668	
0	0	0	0	0	433	668	
1	0	0	0	0	415	668	
2	0	0	0	0	397	668	
3	0	0	0	0	378	668	
4	0	0	0	0	359	668	
5	0	0	0	0	339	668	
6	0	0	0	0	316	668	
7	0	0	0	0	289	668	
8	0	0	0	0	256	668	
9	0	0	0	0	219	668	
10	0	0	0	0	179	668	
11	0	0	0	0	136	668	
12	0	0	0	0	95	668	
13	0	0	0	0	50	668	
14	0	0	0	0	3	668	
15	0	0	0	0	0	668	
0	0	0	0	0	0	668	
1	0	0	0	0	0	668	
2	0	0	0	0	0	668	
3	0	0	0	0	0	668	
4	0	0	0	0	0	668	
5	0	0	0	0	0	668	
6	0	0	0	0	0	668	
7	0	0	0	0	0	668	
8	0	0	0	0	0	668	
9	0	0	0	0	0	668	
10	0	0	0	0	18	668	
11	0	0	0	0	84	668	
12	0	0	0	0	158	668	
13	0	0	0	0	245	668	
14	0	0	0	0	344	668	
15	0	0	0	0	445	668	
0	0	0	0	0	541	668	
1	0	0	0	0	630	668	
2	0	0	0	0	704	668	
3	0	0	0	0	763	668	
4	0	0	0	0	806	668	
5	0	0	0	0	834	668	
6	0	0	0	0	851	668	
7	0	0	0	0	863	668	
8	0	0	0	0	868	668	
9	0	0	0	0	867	668	
10	0	0	0	0	862	668	
11	0	0	0	0	853	669	
12	0	0	0	0	841	668	
13	0	0	0	0	828	669	
14	0	0	0	0	814	668	
15	0	0	0	0	799	668	
0	0	0	0	0	784	669	
1	0	0	0	0	769	668	
2	0	0	0	0	754	668	
3	0	0	0	0	740	668	
4	0	0	0	0	729	669	
5	0	0	0	0	720	669	
6	0	0	0	0	710	668	
7	0	0	0	0	701	669	
8	0	0	0	0	693	669	
9	0	0	0	0	682	669	
10	0	0	0	0	670	669	
11	0	0	0	0	657	669	
12	0	0	0	0	645	669	
13	0	0	0	0	635	669	
14	0	0	0	0	625	669	
15	0	0	0	0	617	669	
0	0	0	0	0	611	669	
1	0	0	0	0	607	669	
2	0	0	0	0	604	670	
3	0	0	0	0	601	669	
4	0	0	0	0	599	669	
5	0	0	0	0	597	669	
6	0	0	0	0	596	669	
7	0	0	0	0	596	669	
8	0	0	0	0	598	669	
9	0	0	0	0	600	669	
10	0	0	0	0	601	669	
11	0	0	0	0	602	669	
12	0	0	0	0	604	669	
13	0	0	0	0	603	669	
14	0	0	0	0	600	669	
15	0	0	0	0	595	670	
0	0	0	0	0	590	669	
1	0	0	0	0	585	670	
2	0	0	0	0	581	669	
3	0	0	0	0	577	670	
4	0	0	0	0	575	670	
5	0	0	0	0	574	670	
6	0	0	0	0	574	669	
7	0	0	0	0	573	669	
8	0	0	0	0	571	670	
9	0	0	0	0	570	669	
10	0	0	0	0	569	670	
11	0	0	0	0	571	670	
12	0	0	0	0	573	670	
13	0	0	0	0	575	670	
14	0	0	0	0	578	670	
15	0	0	0	0	582	670	
0	0	0	0	0	584	670	
1	0	0	0	0	583	670	
2	0	0	0	0	580	670	
3	0	0	0	0	576	670	
4	0	0	0	0	572	670	
5	0	0	0	0	568	670	
6	0	0	0	0	565	670	
7	0	0	0	0	562	670	
8	0	0	0	0	560	670	
9	0	0	0	0	559	670	
10	0	0	0	0	559	670	
11	0	0	0	0	557	670	
12	0	0	0	0	556	670	
13	0	0	0	0	556	670	
14	0	0	0	0	555	670	
15	0	0	0	0	556	670	
0	0	0	0	0	557	670	
1	0	0	0	0	560	670	
2	0	0	0	0	561	670	
3	0	0	0	0	563	670	
4	0	0	0	0	564	670	
5	0	0	0	0	564	670	
6	0	0	0	0	561	670	
7	0	0	0	0	556	670	
8	0	0	0	0	551	670	
9	0	0	0	0	547	670	
10	0	0	0	0	543	670	
11	0	0	0	0	540	670	
12	0	0	0	0	537	670	
13	0	0	0	0	537	670	
14	0	0	0	0	537	670	
15	0	0	0	0	536	670	
0	0	0	0	0	535	670	
1	0	0	0	0	534	670	
2	0	0	0	0	535	670	
3	0	0	0	0	537	670	
4	0	0	0	0	540	670	
5	0	0	0	0	543	670	
6	0	0	0	0	546	670	
7	0	0	0	0	549	670	
8	0	0	0	0	552	671	
9	0	0	0	0	551	670	
10	0	0	0	0	548	671	
11	0	0	0	0	544	670	
12	0	0	0	0	540	671	
13	0	0	0	0	536	670	
14	0	0	0	0	532	671	
15	0	0	0	0	529	671	
0	0	0	0	0	528	671	
1	0	0	0	0	528	671	
2	0	0	0	0	528	671	
3	0	0	0	0	527	671	
4	0	0	0	0	527	671	
5	0	0	0	0	527	671	
6	0	0	0	0	527	670	
7	0	0	0	0	529	671	
8	0	0	0	0	531	670	
9	0	0	0	0	534	671	
10	0	0	0	0	537	671	
11	0	0	0	0	539	671	
12	0	0	0	0	542	671	
13	0	0	0	0	541	671	
14	0	0	0	0	538	671	
15	0	0	0	0	533	671	
0	0	0	0	0	529	671	
1	0	0	0	0	524	671	
2	0	0	0	0	521	671	
3	0	0	0	0	519	671	
4	0	0	0	0	517	671	
5	0	0	0	0	517	671	
6	0	0	0	0	518	671	
7	0	0	0	0	518	671	
8	0	0	0	0	517	671	
9	0	0	0	0	516	671	
10	0	0	0	0	516	671	
11	0	0	0	0	518	671	
12	0	0	0	0	519	671	
13	0	0	0	0	523	671	
14	0	0	0	0	525	671	
15	0	0	0	0	527	671	
0	0	0	0	0	529	671	
1	0	0	0	0	528	671	
2	0	0	0	0	526	671	
3	0	0	0	0	522	671	
4	0	0	0	0	518	671	
5	0	0	0	0	513	671	
6	0	0	0	0	509	671	
7	0	0	0	0	506	671	
8	0	0	0	0	504	671	
9	0	0	0	0	504	671	
10	0	0	0	0	504	671	
11	0	0	0	0	504	671	
12	0	0	0	0	503	671	
13	0	0	0	0	503	671	
14	0	0	0	0	503	671	
15	0	0	0	0	505	671	
0	0	0	0	0	508	671	
1	0	0	0	0	511	671	
2	0	0	0	0	513	671	
3	0	0	0	0	515	671	
4	0	0	0	0	517	671	
5	0	0	0	0	517	671	
6	0	0	0	0	515	671	
7	0	0	0	0	511	671	
8	0	0	0	0	508	671	
9	0	0	0	0	503	671	
10	0	0	0	0	499	671	
11	0	0	0	0	497	671	
12	0	0	0	0	495	672	
13	0	0	0	0	495	672	
14	0	0	0	0	495	672	
15	0	0	0	0	494	671	
0	0	0	0	0	492	672	
1	0	0	0	0	492	672	
2	0	0	0	0	491	672	
3	0	0	0	0	492	671	
4	0	0	0	0	494	671	
5	0	0	0	0	496	672	
6	0	0	0	0	499	672	
7	0	0	0	0	502	672	
8	0	0	0	0	504	672	
9	0	0	0	0	502	672	
10	0	0	0	0	499	671	
11	0	0	0	0	494	672	
12	0	0	0	0	489	672	
13	0	0	0	0	484	672	
14	0	0	0	0	481	672	
15	0	0	0	0	479	672	
0	0	0	0	0	477	672	
1	0	0	0	0	476	672	
2	0	0	0	0	476	672	
3	0	0	0	0	475	672	
4	0	0	0	0	474	672	
5	0	0	0	0	473	672	
6	0	0	0	0	473	672	
7	0	0	0	0	474	672	
8	0	0	0	0	476	672	
9	0	0	0	0	478	672	
10	0	0	0	0	480	672	
11	0	0	0	0	483	672	
12	0	0	0	0	486	672	
13	0	0	0	0	485	672	
14	0	0	0	0	482	672	
15	0	0	0	0	478	672	
0	0	0	0	0	473	672	
1	0	0	0	0	469	672	
2	0	0	0	0	465	672	
3	0	0	0	0	463	672	
4	0	0	0	0	461	672	
5	0	0	0	0	461	672	
6	0	0	0	0	461	672	
7	0	0	0	0	460	672	
8	0	0	0	0	459	672	
9	0	0	0	0	459	672	
10	0	0	0	0	460	672	
11	0	0	0	0	462	672	
12	0	0	0	0	464	672	
13	0	0	0	0	467	672	
14	0	0	0	0	470	672	
15	0	0	0	0	474	672	
0	0	0	0	0	476	672	
1	0	0	0	0	475	672	
2	0	0	0	0	472	672	
3	0	0	0	0	469	672	
4	0	0	0	0	465	672	
5	0	0	0	0	462	672	
6	0	0	0	0	458	672	
7	0	0	0	0	456	672	
8	0	0	0	0	455	672	
9	0	0	0	0	455	672	
10	0	0	0	0	455	672	
11	0	0	0	0	455	672	
12	0	0	0	0	454	672	
13	0	0	0	0	453	672	
14	0	0	0	0	454	672	
15	0	0	0	0	456	672	
0	0	0	0	0	459	672	
1	0	0	0	0	463	672	
2	0	0	0	0	467	672	
3	0	0	0	0	470	673	
4	0	0	0	0	472	672	
5	0	0	0	0	472	672	
6	0	0	0	0	471	672	
7	0	0	0	0	468	672	
8	0	0	0	0	465	673	
9	0	0	0	0	462	672	
10	0	0	0	0	459	672	
11	0	0	0	0	458	673	
12	0	0	0	0	458	672	
13	0	0	0	0	460	673	
14	0	0	0	0	462	673	
15	0	0	0	0	463	672	
0	0	0	0	0	463	673	
1	0	0	0	0	464	672	
2	0	0	0	0	467	672	
3	0	0	0	0	470	672	
4	0	0	0	0	475	673	
5	0	0	0	0	480	673	
6	0	0	0	0	486	672	
7	0	0	0	0	491	673	
8	0	0	0	0	496	673	
9	0	0	0	0	498	673	
10	0	0	0	0	497	673	
11	0	0	0	0	495	673	
12	0	0	0	0	492	672	
13	0	0	0	0	490	673	
14	0	0	0	0	489	673	
15	0	0	0	0	488	673	
0	0	0	0	0	488	673	
1	0	0	0	0	490	673	
2	0	0	0	0	493	673	
3	0	0	0	0	495	673	
4	0	0	0	0	496	673	
5	0	0	0	0	498	673	
6	0	0	0	0	501	673	
7	0	0	0	0	505	673	
8	0	0	0	0	509	673	
9	0	0	0	0	513	673	
10	0	0	0	0	518	673	
11	0	0	0	0	523	673	
12	0	0	0	0	528	673	
13	0	0	0	0	529	673	
14	0	0	0	0	528	673	
15	0	0	0	0	526	673	
0	0	0	0	0	524	673	
1	0	0	0	0	521	673	
2	0	0	0	0	520	673	
3	0	0	0	0	519	673	
4	0	0	0	0	519	673	
5	0	0	0	0	519	673	
6	0	0	0	0	520	673	
7	0	0	0	0	521	673	
8	0	0	0	0	523	673	
9	0	0	0	0	524	673	
10	0	0	0	0	526	673	
11	0	0	0	0	529	673	
12	0	0	0	0	532	673	
13	0	0	0	0	537	673	
14	0	0	0	0	542	673	
15	0	0	0	0	547	673	
0	0	0	0	0	551	673	
1	0	0	0	0	551	673	
2	0	0	0	0	551	673	
3	0	0	0	0	549	673	
4	0	0	0	0	547	673	
5	0	0	0	0	543	673	
6	0	0	0	0	540	673	
7	0	0	0	0	538	673	
8	0	0	0	0	536	673	
9	0	0	0	0	536	673	
10	0	0	0	0	536	673	
11	0	0	0	0	536	673	
12	0	0	0	0	536	673	
13	0	0	0	0	536	673	
14	0	0	0	0	537	673	
15	0	0	0	0	539	673	
0	0	0	0	0	542	673	
1	0	0	0	0	545	673	
2	0	0	0	0	549	673	
3	0	0	0	0	552	673	
4	0	0	0	0	554	673	
5	0	0	0	0	554	673	
6	0	0	0	0	551	673	
7	0	0	0	0	547	673	
8	0	0	0	0	543	673	
9	0	0	0	0	540	674	
10	0	0	0	0	537	673	
11	0	0	0	0	535	674	
12	0	0	0	0	534	673	
13	0	0	0	0	535	673	
14	0	0	0	0	536	674	
15	0	0	0	0	536	673	
0	0	0	0	0	535	674	
1	0	0	0	0	535	673	
2	0	0	0	0	536	673	
3	0	0	0	0	538	673	
4	0	0	0	0	541	673	
5	0	0	0	0	545	673	
6	0	0	0	0	548	673	
7	0	0	0	0	551	673	
8	0	0	0	0	554	674	
9	0	0	0	0	552	674	
10	0	0	0	0	551	674	
11	0	0	0	0	547	674	
12	0	0	0	0	542	674	
13	0	0	0	0	539	674	
14	0	0	0	0	536	674	
15	0	0	0	0	535	674	
0	0	0	0	0	534	674	
1	0	0	0	0	533	674	
2	0	0	0	0	534	674	
3	0	0	0	0	532	674	
4	0	0	0	0	531	674	
5	0	0	0	0	530	674	
6	0	0	0	0	531	674	
7	0	0	0	0	532	674	
8	0	0	0	0	535	674	
9	0	0	0	0	537	674	
10	0	0	0	0	541	674	
11	0	0	0	0	544	674	
12	0	0	0	0	547	674	
13	0	0	0	0	547	674	
14	0	0	0	0	544	674	
15	0	0	0	0	540	674	
0	0	0	0	0	536	674	
1	0	0	0	0	532	674	
2	0	0	0	0	529	674	
3	0	0	0	0	527	674	
4	0	0	0	0	526	674	
5	0	0	0	0	526	674	
6	0	0	0	0	526	674	
7	0	0	0	0	525	674	
8	0	0	0	0	525	674	
9	0	0	0	0	525	674	
10	0	0	0	0	525	674	
11	0	0	0	0	526	674	
12	0	0	0	0	529	674	
13	0	0	0	0	532	674	
14	0	0	0	0	535	674	
15	0	0	0	0	538	674	
0	0	0	0	0	540	674	
1	0	0	0	0	540	674	
2	0	0	0	0	536	674	
3	0	0	0	0	532	674	
4	0	0	0	0	528	674	
5	0	0	0	0	525	674	
6	0	0	0	0	523	674	
7	0	0	0	0	521	674	
8	0	0	0	0	519	674	
9	0	0	0	0	518	674	
10	0	0	0	0	519	674	
11	0	0	0	0	519	674	
12	0	0	0	0	518	675	
13	0	0	0	0	518	674	
14	0	0	0	0	519	674	
15	0	0	0	0	521	675	
0	0	0	0	0	524	674	
1	0	0	0	0	527	674	
2	0	0	0	0	529	674	
3	0	0	0	0	532	674	
4	0	0	0	0	534	674	
5	0	0	0	0	532	675	
6	0	0	0	0	530	674	
7	0	0	0	0	527	675	
8	0	0	0	0	523	675	
9	0	0	0	0	519	675	
10	0	0	0	0	515	675	
11	0	0	0	0	512	675	
12	0	0	0	0	511	675	
13	0	0	0	0	511	675	
14	0	0	0	0	511	675	
15	0	0	0	0	510	675	
0	0	0	0	0	510	675	
1	0	0	0	0	510	675	
2	0	0	0	0	510	674	
3	0	0	0	0	512	675	
4	0	0	0	0	514	675	
5	0	0	0	0	517	675	
6	0	0	0	0	520	675	
7	0	0	0	0	524	675	
8	0	0	0	0	525	675	
9	0	0	0	0	525	675	
10	0	0	0	0	522	675	
11	0	0	0	0	518	675	
12	0	0	0	0	514	675	
13	0	0	0	0	511	675	
14	0	0	0	0	507	675	
15	0	0	0	0	504	675	
0	0	0	0	0	504	675	
1	0	0	0	0	504	675	
2	0	0	0	0	505	675	
3	0	0	0	0	504	675	
4	0	0	0	0	504	675	
5	0	0	0	0	504	675	
6	0	0	0	0	505	675	
7	0	0	0	0	507	675	
8	0	0	0	0	510	675	
9	0	0	0	0	514	675	
10	0	0	0	0	518	675	
11	0	0	0	0	521	675	
12	0	0	0	0	523	675	
13	0	0	0	0	523	675	
14	0	0	0	0	520	675	
15	0	0	0	0	517	675	
0	0	0	0	0	513	675	
1	0	0	0	0	510	675	
2	0	0	0	0	506	675	
3	0	0	0	0	504	675	
4	0	0	0	0	503	675	
5	0	0	0	0	503	675	
6	0	0	0	0	504	675	
7	0	0	0	0	505	675	
8	0	0	0	0	505	675	
9	0	0	0	0	505	675	
10	0	0	0	0	506	675	
11	0	0	0	0	508	675	
12	0	0	0	0	509	675	
13	0	0	0	0	512	675	
14	0	0	0	0	516	675	
15	0	0	0	0	521	675	
0	0	0	0	0	524	675	
1	0	0	0	0	524	675	
2	0	0	0	0	521	675	
3	0	0	0	0	518	675	
4	0	0	0	0	514	675	
5	0	0	0	0	512	675	
6	0	0	0	0	510	675	
7	0	0	0	0	508	675	
8	0	0	0	0	508	675	
9	0	0	0	0	507	675	
10	0	0	0	0	507	675	
11	0	0	0	0	507	675	
12	0	0	0	0	507	675	
13	0	0	0	0	507	675	
14	0	0	0	0	508	675	
15	0	0	0	0	510	675	
0	0	0	0	0	513	675	
1	0	0	0	0	517	675	
2	0	0	0	0	520	675	
3	0	0	0	0	523	675	
4	0	0	0	0	525	675	
5	0	0	0	0	524	675	
6	0	0	0	0	521	675	
7	0	0	0	0	518	675	
8	0	0	0	0	513	675	
9	0	0	0	0	510	676	
10	0	0	0	0	508	675	
11	0	0	0	0	505	676	
12	0	0	0	0	505	675	
13	0	0	0	0	505	676	
14	0	0	0	0	507	675	
15	0	0	0	0	507	675	
0	0	0	0	0	507	675	
1	0	0	0	0	507	675	
2	0	0	0	0	507	675	
3	0	0	0	0	509	675	
4	0	0	0	0	512	675	
5	0	0	0	0	515	675	
6	0	0	0	0	518	675	
7	0	0	0	0	521	676	
8	0	0	0	0	524	676	
9	0	0	0	0	523	676	
10	0	0	0	0	521	675	
11	0	0	0	0	518	675	
12	0	0	0	0	515	676	
13	0	0	0	0	512	676	
14	0	0	0	0	510	676	
15	0	0	0	0	508	676	
0	0	0	0	0	507	676	
1	0	0	0	0	508	676	
2	0	0	0	0	509	676	
3	0	0	0	0	509	676	
4	0	0	0	0	509	675	
5	0	0	0	0	508	675	
6	0	0	0	0	510	676	
7	0	0	0	0	512	676	
8	0	0	0	0	515	676	
9	0	0	0	0	518	676	
10	0	0	0	0	521	676	
11	0	0	0	0	525	676	
12	0	0	0	0	527	676	
13	0	0	0	0	526	676	
14	0	0	0	0	524	676	
15	0	0	0	0	520	676	
0	0	0	0	0	517	676	
1	0	0	0	0	513	676	
2	0	0	0	0	509	676	
3	0	0	0	0	507	676	
4	0	0	0	0	506	676	
5	0	0	0	0	505	676	
6	0	0	0	0	507	676	
7	0	0	0	0	506	676	
8	0	0	0	0	506	676	
9	0	0	0	0	505	676	
10	0	0	0	0	507	676	
11	0	0	0	0	508	676	
12	0	0	0	0	511	676	
13	0	0	0	0	514	676	
14	0	0	0	0	517	676	
15	0	0	0	0	520	676	
0	0	0	0	0	523	676	
1	0	0	0	0	523	676	
2	0	0	0	0	521	676	
3	0	0	0	0	519	676	
4	0	0	0	0	515	676	
5	0	0	0	0	512	676	
6	0	0	0	0	509	676	
7	0	0	0	0	507	676	
8	0	0	0	0	506	676	
9	0	0	0	0	506	676	
10	0	0	0	0	507	676	
11	0	0	0	0	507	676	
12	0	0	0	0	508	676	
13	0	0	0	0	508	676	
14	0	0	0	0	509	676	
15	0	0	0	0	511	676	
0	0	0	0	0	513	676	
1	0	0	0	0	517	676	
2	0	0	0	0	520	676	
3	0	0	0	0	523	676	
4	0	0	0	0	525	676	
5	0	0	0	0	524	676	
6	0	0	0	0	522	676	
7	0	0	0	0	518	676	
8	0	0	0	0	514	676	
9	0	0	0	0	511	676	
10	0	0	0	0	508	676	
11	0	0	0	0	507	676	
12	0	0	0	0	506	676	
13	0	0	0	0	507	676	
14	0	0	0	0	509	676	
15	0	0	0	0	509	676	
0	0	0	0	0	508	676	
1	0	0	0	0	508	676	
2	0	0	0	0	509	676	
3	0	0	0	0	511	676	
4	0	0	0	0	514	676	
5	0	0	0	0	518	676	
6	0	0	0	0	521	676	
7	0	0	0	0	524	676	
8	0	0	0	0	526	676	
9	0	0	0	0	526	676	
10	0	0	0	0	523	676	
11	0	0	0	0	519	676	
12	0	0	0	0	516	676	
13	0	0	0	0	512	676	
14	0	0	0	0	510	676	
15	0	0	0	0	508	676	
0	0	0	0	0	507	676	
1	0	0	0	0	507	676	
2	0	0	0	0	508	676	
3	0	0	0	0	507	676	
4	0	0	0	0	505	676	
5	0	0	0	0	506	676	
6	0	0	0	0	507	676	
7	0	0	0	0	509	676	
8	0	0	0	0	511	676	
9	0	0	0	0	514	676	
10	0	0	0	0	518	676	
11	0	0	0	0	520	676	
12	0	0	0	0	523	676	
13	0	0	0	0	522	676	
14	0	0	0	0	519	676	
15	0	0	0	0	515	676	
0	0	0	0	0	512	676	
1	0	0	0	0	508	677	
2	0	0	0	0	505	676	
3	0	0	0	0	503	676	
4	0	0	0	0	503	676	
5	0	0	0	0	504	676	
6	0	0	0	0	504	676	
7	0	0	0	0	505	676	
8	0	0	0	0	504	676	
9	0	0	0	0	505	676	
10	0	0	0	0	507	676	
11	0	0	0	0	508	676	
12	0	0	0	0	511	676	
13	0	0	0	0	515	676	
14	0	0	0	0	518	676	
15	0	0	0	0	521	676	
0	0	0	0	0	523	677	
1	0	0	0	0	522	676	
2	0	0	0	0	520	676	
3	0	0	0	0	517	676	
4	0	0	0	0	514	676	
5	0	0	0	0	510	676	
6	0	0	0	0	507	676	
7	0	0	0	0	505	676	
8	0	0	0	0	504	676	
9	0	0	0	0	504	676	
10	0	0	0	0	504	676	
11	0	0	0	0	505	677	
12	0	0	0	0	504	676	
13	0	0	0	0	504	676	
14	0	0	0	0	505	676	
15	0	0	0	0	508	676	
0	0	0	0	0	511	676	
1	0	0	0	0	514	677	
2	0	0	0	0	518	676	
3	0	0	0	0	521	677	
4	0	0	0	0	524	676	
5	0	0	0	0	523	676	
6	0	0	0	0	520	676	
7	0	0	0	0	517	677	
8	0	0	0	0	512	676	
9	0	0	0	0	509	677	
10	0	0	0	0	506	676	
11	0	0	0	0	504	677	
12	0	0	0	0	503	677	
13	0	0	0	0	503	676	
14	0	0	0	0	503	677	
15	0	0	0	0	503	676	
0	0	0	0	0	502	676	
1	0	0	0	0	502	676	
2	0	0	0	0	503	676	
3	0	0	0	0	505	676	
4	0	0	0	0	508	676	
5	0	0	0	0	512	676	
6	0	0	0	0	516	677	
7	0	0	0	0	520	677	
8	0	0	0	0	523	676	
9	0	0	0	0	523	677	
10	0	0	0	0	520	676	
11	0	0	0	0	517	676	
12	0	0	0	0	514	677	
13	0	0	0	0	511	677	
14	0	0	0	0	509	676	
15	0	0	0	0	508	676	
0	0	0	0	0	508	677	
1	0	0	0	0	508	677	
2	0	0	0	0	508	676	
3	0	0	0	0	508	677	
4	0	0	0	0	506	677	
5	0	0	0	0	505	676	
6	0	0	0	0	506	676	
7	0	0	0	0	507	677	
8	0	0	0	0	510	677	
9	0	0	0	0	512	677	
10	0	0	0	0	515	677	
11	0	0	0	0	518	677	
12	0	0	0	0	519	677	
13	0	0	0	0	518	677	
14	0	0	0	0	515	677	
15	0	0	0	0	512	677	
0	0	0	0	0	507	677	
1	0	0	0	0	503	677	
2	0	0	0	0	498	677	
3	0	0	0	0	495	677	
4	0	0	0	0	493	677	
5	0	0	0	0	492	677	
6	0	0	0	0	491	677	
7	0	0	0	0	489	677	
8	0	0	0	0	488	677	
9	0	0	0	0	487	677	
10	0	0	0	0	487	677	
11	0	0	0	0	491	677	
12	0	0	0	0	494	677	
13	0	0	0	0	497	677	
14	0	0	0	0	500	677	
15	0	0	0	0	504	677	
0	0	0	0	0	506	677	
1	0	0	0	0	504	677	
2	0	0	0	0	501	677	
3	0	0	0	0	496	677	
4	0	0	0	0	492	677	
5	0	0	0	0	487	677	
6	0	0	0	0	483	677	
7	0	0	0	0	480	677	
8	0	0	0	0	478	677	
9	0	0	0	0	478	677	
10	0	0	0	0	478	677	
11	0	0	0	0	477	677	
12	0	0	0	0	476	677	
13	0	0	0	0	476	677	
14	0	0	0	0	476	677	
15	0	0	0	0	478	677	
0	0	0	0	0	481	677	
1	0	0	0	0	487	677	
2	0	0	0	0	491	677	
3	0	0	0	0	496	677	
4	0	0	0	0	499	677	
5	0	0	0	0	500	677	
6	0	0	0	0	500	677	
7	0	0	0	0	497	677	
8	0	0	0	0	494	677	
9	0	0	0	0	491	677	
10	0	0	0	0	489	677	
11	0	0	0	0	488	677	
12	0	0	0	0	488	677	
13	0	0	0	0	489	677	
14	0	0	0	0	491	677	
15	0	0	0	0	492	677	
0	0	0	0	0	493	677	
1	0	0	0	0	494	677	
2	0	0	0	0	495	677	
3	0	0	0	0	498	677	
4	0	0	0	0	501	677	
5	0	0	0	0	507	677	
6	0	0	0	0	511	677	
7	0	0	0	0	516	677	
8	0	0	0	0	520	677	
9	0	0	0	0	519	677	
10	0	0	0	0	519	677	
11	0	0	0	0	516	677	
12	0	0	0	0	515	678	
13	0	0	0	0	513	677	
14	0	0	0	0	512	677	
15	0	0	0	0	511	677	
0	0	0	0	0	512	677	
1	0	0	0	0	513	677	
2	0	0	0	0	515	677	
3	0	0	0	0	514	677	
4	0	0	0	0	514	677	
5	0	0	0	0	515	677	
6	0	0	0	0	516	677	
7	0	0	0	0	519	677	
8	0	0	0	0	523	677	
9	0	0	0	0	527	677	
10	0	0	0	0	532	677	
11	0	0	0	0	536	677	
12	0	0	0	0	538	677	
13	0	0	0	0	537	677	
14	0	0	0	0	535	677	
15	0	0	0	0	531	678	
0	0	0	0	0	527	677	
1	0	0	0	0	523	678	
2	0	0	0	0	520	677	
3	0	0	0	0	518	677	
4	0	0	0	0	516	678	
5	0	0	0	0	516	678	
6	0	0	0	0	517	678	
7	0	0	0	0	516	677	
8	0	0	0	0	516	677	
9	0	0	0	0	516	677	
10	0	0	0	0	517	678	
11	0	0	0	0	519	677	
12	0	0	0	0	523	677	
13	0	0	0	0	526	677	
14	0	0	0	0	529	678	
15	0	0	0	0	532	678	
0	0	0	0	0	533	678	
1	0	0	0	0	532	678	
2	0	0	0	0	529	678	
3	0	0	0	0	526	678	
4	0	0	0	0	522	678	
5	0	0	0	0	519	678	
6	0	0	0	0	517	678	
7	0	0	0	0	515	678	
8	0	0	0	0	514	678	
9	0	0	0	0	515	678	
10	0	0	0	0	515	678	
11	0	0	0	0	515	677	
12	0	0	0	0	514	677	
13	0	0	0	0	514	677	
14	0	0	0	0	515	677	
15	0	0	0	0	517	678	
0	0	0	0	0	520	677	
1	0	0	0	0	524	677	
2	0	0	0	0	527	678	
3	0	0	0	0	530	678	
4	0	0	0	0	531	678	
5	0	0	0	0	530	678	
6	0	0	0	0	527	677	
7	0	0	0	0	524	678	
8	0	0	0	0	520	678	
9	0	0	0	0	516	678	
10	0	0	0	0	513	678	
11	0	0	0	0	511	678	
12	0	0	0	0	510	678	
13	0	0	0	0	509	678	
14	0	0	0	0	509	678	
15	0	0	0	0	508	678	
0	0	0	0	0	508	678	
1	0	0	0	0	507	678	
2	0	0	0	0	507	678	
3	0	0	0	0	509	678	
4	0	0	0	0	512	677	
5	0	0	0	0	516	678	
6	0	0	0	0	521	678	
7	0	0	0	0	525	678	
8	0	0	0	0	528	678	
9	0	0	0	0	528	678	
10	0	0	0	0	527	678	
11	0	0	0	0	525	678	
12	0	0	0	0	523	678	
13	0	0	0	0	521	678	
14	0	0	0	0	519	678	
15	0	0	0	0	518	678	
0	0	0	0	0	516	678	
1	0	0	0	0	515	678	
2	0	0	0	0	513	678	
3	0	0	0	0	509	678	
4	0	0	0	0	502	678	
5	0	0	0	0	496	678	
6	0	0	0	0	489	678	
7	0	0	0	0	483	678	
8	0	0	0	0	476	678	
9	0	0	0	0	466	678	
10	0	0	0	0	454	678	
11	0	0	0	0	440	678	
12	0	0	0	0	425	678	
13	0	0	0	0	407	678	
14	0	0	0	0	386	678	
15	0	0	0	0	363	678	
0	0	0	0	0	339	678	
1	0	0	0	0	315	678	
2	0	0	0	0	287	678	
3	0	0	0	0	257	678	
4	0	0	0	0	225	678	
5	0	0	0	0	191	678	
6	0	0	0	0	153	678	
7	0	0	0	0	111	678	
8	0	0	0	0	66	678	
9	0	0	0	0	22	677	
10	0	0	0	0	0	678	
11	0	0	0	0	0	678	
12	0	0	0	0	0	677	
13	0	0	0	0	0	678	
14	0	0	0	0	0	678	
15	0	0	0	0	0	677	
0	0	0	0	0	0	678	
1	0	0	0	0	0	678	
2	0	0	0	0	0	677	
3	0	0	0	0	0	678	
4	0	0	0	0	0	678	
5	0	0	0	0	18	677	
6	0	0	0	0	77	677	
7	0	0	0	0	147	678	
8	0	0	0	0	228	678	
9	0	0	0	0	318	678	
10	0	0	0	0	408	677	
11	0	0	0	0	495	678	
12	0	0	0	0	576	677	
13	0	0	0	0	649	677	
14	0	0	0	0	709	677	
15	0	0	0	0	756	677	
0	0	0	0	0	790	677	
1	0	0	0	0	816	677	
2	0	0	0	0	836	677	
3	0	0	0	0	852	677	
4	0	0	0	0	863	677	
5	0	0	0	0	867	677	
6	0	0	0	0	866	678	
7	0	0	0	0	858	678	
8	0	0	0	0	847	677	
9	0	0	0	0	835	678	
10	0	0	0	0	823	678	
11	0	0	0	0	810	678	
12	0	0	0	0	796	678	
13	0	0	0	0	782	678	
14	0	0	0	0	768	678	
15	0	0	0	0	753	678	
0	0	0	0	0	738	678	
1	0	0	0	0	723	678	
2	0	0	0	0	711	678	
3	0	0	0	0	700	678	
4	0	0	0	0	690	678	
5	0	0	0	0	682	678	
6	0	0	0	0	674	678	
7	0	0	0	0	668	678	
8	0	0	0	0	660	678	
9	0	0	0	0	651	678	
10	0	0	0	0	640	678	
11	0	0	0	0	630	678	
12	0	0	0	0	621	678	
13	0	0	0	0	613	678	
14	0	0	0	0	606	678	
15	0	0	0	0	600	678	
0	0	0	0	0	596	678	
1	0	0	0	0	593	678	
2	0	0	0	0	591	678	
3	0	0	0	0	589	678	
4	0	0	0	0	588	678	
5	0	0	0	0	586	678	
6	0	0	0	0	585	678	
7	0	0	0	0	587	678	
8	0	0	0	0	588	678	
9	0	0	0	0	590	678	
10	0	0	0	0	592	678	
11	0	0	0	0	595	678	
12	0	0	0	0	596	678	
13	0	0	0	0	595	678	
14	0	0	0	0	592	678	
15	0	0	0	0	588	678	
0	0	0	0	0	582	678	
1	0	0	0	0	577	678	
2	0	0	0	0	574	678	
3	0	0	0	0	571	678	
4	0	0	0	0	569	678	
5	0	0	0	0	568	678	
6	0	0	0	0	568	678	
7	0	0	0	0	567	678	
8	0	0	0	0	566	678	
9	0	0	0	0	565	678	
10	0	0	0	0	565	678	
11	0	0	0	0	567	678	
12	0	0	0	0	569	678	
13	0	0	0	0	571	678	
14	0	0	0	0	574	678	
15	0	0	0	0	575	678	
0	0	0	0	0	576	678	
1	0	0	0	0	575	678	
2	0	0	0	0	572	678	
3	0	0	0	0	567	678	
4	0	0	0	0	562	678	
5	0	0	0	0	557	678	
6	0	0	0	0	553	678	
7	0	0	0	0	551	678	
8	0	0	0	0	548	678	
9	0	0	0	0	548	678	
10	0	0	0	0	548	678	
11	0	0	0	0	547	678	
12	0	0	0	0	545	678	
13	0	0	0	0	544	678	
14	0	0	0	0	544	678	
15	0	0	0	0	545	678	
0	0	0	0	0	547	678	
1	0	0	0	0	551	678	
2	0	0	0	0	553	678	
3	0	0	0	0	556	678	
4	0	0	0	0	556	678	
5	0	0	0	0	555	678	
6	0	0	0	0	552	679	
7	0	0	0	0	548	678	
8	0	0	0	0	543	678	
9	0	0	0	0	540	678	
10	0	0	0	0	536	678	
11	0	0	0	0	534	679	
12	0	0	0	0	533	679	
13	0	0	0	0	533	678	
14	0	0	0	0	533	679	
15	0	0	0	0	532	678	
0	0	0	0	0	532	678	
1	0	0	0	0	531	678	
2	0	0	0	0	532	678	
3	0	0	0	0	534	679	
4	0	0	0	0	536	678	
5	0	0	0	0	539	678	
6	0	0	0	0	541	678	
7	0	0	0	0	543	678	
8	0	0	0	0	544	679	
9	0	0	0	0	543	679	
10	0	0	0	0	540	679	
11	0	0	0	0	536	678	
12	0	0	0	0	531	679	
13	0	0	0	0	527	679	
14	0	0	0	0	524	678	
15	0	0	0	0	522	679	
0	0	0	0	0	520	679	
1	0	0	0	0	520	678	
2	0	0	0	0	520	679	
3	0	0	0	0	519	678	
4	0	0	0	0	519	678	
5	0	0	0	0	518	678	
6	0	0	0	0	518	678	
7	0	0	0	0	519	678	
8	0	0	0	0	521	678	
9	0	0	0	0	525	679	
10	0	0	0	0	528	679	
11	0	0	0	0	531	678	
12	0	0	0	0	532	679	
13	0	0	0	0	531	678	
14	0	0	0	0	527	679	
15	0	0	0	0	523	679	
0	0	0	0	0	518	679	
1	0	0	0	0	514	679	
2	0	0	0	0	511	679	
3	0	0	0	0	509	679	
4	0	0	0	0	508	679	
5	0	0	0	0	509	679	
6	0	0	0	0	510	679	
7	0	0	0	0	510	679	
8	0	0	0	0	509	679	
9	0	0	0	0	509	679	
10	0	0	0	0	509	679	
11	0	0	0	0	511	679	
12	0	0	0	0	514	678	
13	0	0	0	0	517	679	
14	0	0	0	0	519	679	
15	0	0	0	0	521	679	
0	0	0	0	0	523	679	
1	0	0	0	0	521	679	
2	0	0	0	0	517	679	
3	0	0	0	0	513	679	
4	0	0	0	0	509	679	
5	0	0	0	0	505	679	
6	0	0	0	0	502	679	
7	0	0	0	0	499	679	
8	0	0	0	0	498	679	
9	0	0	0	0	497	679	
10	0	0	0	0	497	679	
11	0	0	0	0	497	679	
12	0	0	0	0	496	679	
13	0	0	0	0	495	678	
14	0	0	0	0	495	678	
15	0	0	0	0	497	679	
0	0	0	0	0	499	679	
1	0	0	0	0	502	678	
2	0	0	0	0	504	679	
3	0	0	0	0	507	679	
4	0	0	0	0	509	679	
5	0	0	0	0	508	679	
6	0	0	0	0	506	679	
7	0	0	0	0	503	679	
8	0	0	0	0	499	679	
9	0	0	0	0	496	679	
10	0	0	0	0	492	679	
11	0	0	0	0	490	679	
12	0	0	0	0	489	679	
13	0	0	0	0	488	679	
14	0	0	0	0	487	679	
15	0	0	0	0	487	678	
0	0	0	0	0	486	679	
1	0	0	0	0	485	679	
2	0	0	0	0	486	679	
3	0	0	0	0	487	679	
4	0	0	0	0	489	679	
5	0	0	0	0	492	679	
6	0	0	0	0	495	679	
7	0	0	0	0	498	679	
8	0	0	0	0	499	679	
9	0	0	0	0	496	679	
10	0	0	0	0	493	679	
11	0	0	0	0	489	679	
12	0	0	0	0	485	679	
13	0	0	0	0	482	679	
14	0	0	0	0	479	679	
15	0	0	0	0	477	679	
0	0	0	0	0	475	679	
1	0	0	0	0	475	679	
2	0	0	0	0	475	679	
3	0	0	0	0	473	679	
4	0	0	0	0	472	679	
5	0	0	0	0	472	679	
6	0	0	0	0	473	679	
7	0	0	0	0	475	679	
8	0	0	0	0	476	679	
9	0	0	0	0	480	679	
10	0	0	0	0	482	679	
11	0	0	0	0	484	679	
12	0	0	0	0	486	679	
13	0	0	0	0	484	679	
14	0	0	0	0	481	679	
15	0	0	0	0	477	679	
0	0	0	0	0	473	679	
1	0	0	0	0	468	679	
2	0	0	0	0	465	679	
3	0	0	0	0	463	679	
4	0	0	0	0	462	679	
5	0	0	0	0	462	679	
6	0	0	0	0	462	679	
7	0	0	0	0	460	679	
8	0	0	0	0	460	679	
9	0	0	0	0	460	679	
10	0	0	0	0	460	678	
11	0	0	0	0	462	679	
12	0	0	0	0	465	679	
13	0	0	0	0	468	679	
14	0	0	0	0	471	679	
15	0	0	0	0	473	679	
0	0	0	0	0	475	679	
1	0	0	0	0	475	679	
2	0	0	0	0	472	679	
3	0	0	0	0	468	679	
4	0	0	0	0	464	679	
5	0	0	0	0	462	679	
6	0	0	0	0	459	679	
7	0	0	0	0	457	679	
8	0	0	0	0	456	679	
9	0	0	0	0	458	679	
10	0	0	0	0	458	679	
11	0	0	0	0	458	678	
12	0	0	0	0	457	679	
13	0	0	0	0	457	679	
14	0	0	0	0	459	679	
15	0	0	0	0	462	679	
0	0	0	0	0	465	678	
1	0	0	0	0	469	679	
2	0	0	0	0	473	679	
3	0	0	0	0	477	679	
4	0	0	0	0	479	679	
5	0	0	0	0	478	678	
6	0	0	0	0	477	679	
7	0	0	0	0	474	679	
8	0	0	0	0	471	679	
9	0	0	0	0	468	679	
10	0	0	0	0	466	679	
11	0	0	0	0	465	679	
12	0	0	0	0	466	679	
13	0	0	0	0	468	679	
14	0	0	0	0	471	679	
15	0	0	0	0	472	679	
0	0	0	0	0	474	679	
1	0	0	0	0	476	679	
2	0	0	0	0	478	678	
3	0	0	0	0	481	679	
4	0	0	0	0	486	679	
5	0	0	0	0	491	679	
6	0	0	0	0	496	679	
7	0	0	0	0	499	678	
8	0	0	0	0	502	679	
9	0	0	0	0	502	679	
10	0	0	0	0	500	678	
11	0	0	0	0	499	679	
12	0	0	0	0	497	679	
13	0	0	0	0	496	679	
14	0	0	0	0	495	679	
15	0	0	0	0	495	679	
0	0	0	0	0	496	679	
1	0	0	0	0	497	679	
2	0	0	0	0	499	679	
3	0	0	0	0	500	678	
4	0	0	0	0	502	679	
5	0	0	0	0	503	679	
6	0	0	0	0	506	678	
7	0	0	0	0	509	679	
8	0	0	0	0	513	678	
9	0	0	0	0	518	678	
10	0	0	0	0	524	679	
11	0	0	0	0	528	679	
12	0	0	0	0	532	679	
13	0	0	0	0	532	679	
14	0	0	0	0	530	679	
15	0	0	0	0	527	679	
0	0	0	0	0	525	679	
1	0	0	0	0	522	679	
2	0	0	0	0	520	678	
3	0	0	0	0	519	679	
4	0	0	0	0	520	679	
5	0	0	0	0	523	679	
6	0	0	0	0	524	679	
7	0	0	0	0	524	678	
8	0	0	0	0	524	678	
9	0	0	0	0	525	679	
10	0	0	0	0	527	679	
11	0	0	0	0	530	678	
12	0	0	0	0	534	679	
13	0	0	0	0	538	678	
14	0	0	0	0	542	679	
15	0	0	0	0	547	679	
0	0	0	0	0	549	679	
1	0	0	0	0	548	679	
2	0	0	0	0	546	679	
3	0	0	0	0	543	679	
4	0	0	0	0	539	679	
5	0	0	0	0	536	679	
6	0	0	0	0	533	679	
7	0	0	0	0	531	678	
8	0	0	0	0	531	679	
9	0	0	0	0	531	679	
10	0	0	0	0	532	679	
11	0	0	0	0	532	679	
12	0	0	0	0	531	679	
13	0	0	0	0	531	679	
14	0	0	0	0	533	678	
15	0	0	0	0	535	679	
0	0	0	0	0	539	679	
1	0	0	0	0	543	679	
2	0	0	0	0	547	678	
3	0	0	0	0	550	679	
4	0	0	0	0	552	679	
5	0	0	0	0	551	678	
6	0	0	0	0	548	679	
7	0	0	0	0	544	679	
8	0	0	0	0	540	679	
9	0	0	0	0	536	679	
10	0	0	0	0	533	679	
11	0	0	0	0	531	678	
12	0	0	0	0	530	678	
13	0	0	0	0	530	679	
14	0	0	0	0	530	678	
15	0	0	0	0	529	678	
0	0	0	0	0	529	679	
1	0	0	0	0	529	679	
2	0	0	0	0	531	678	
3	0	0	0	0	534	679	
4	0	0	0	0	537	678	
5	0	0	0	0	540	678	
6	0	0	0	0	543	678	
7	0	0	0	0	546	679	
8	0	0	0	0	547	679	
9	0	0	0	0	546	678	
10	0	0	0	0	543	679	
11	0	0	0	0	539	679	
12	0	0	0	0	535	679	
13	0	0	0	0	531	679	
14	0	0	0	0	527	679	
15	0	0	0	0	526	679	
0	0	0	0	0	524	679	
1	0	0	0	0	524	679	
2	0	0	0	0	525	679	
3	0	0	0	0	524	678	
4	0	0	0	0	524	679	
5	0	0	0	0	524	679	
6	0	0	0	0	525	678	
7	0	0	0	0	527	679	
8	0	0	0	0	529	678	
9	0	0	0	0	532	678	
10	0	0	0	0	534	678	
11	0	0	0	0	537	679	
12	0	0	0	0	539	679	
13	0	0	0	0	537	679	
14	0	0	0	0	534	679	
15	0	0	0	0	530	679	
0	0	0	0	0	527	679	
1	0	0	0	0	524	679	
2	0	0	0	0	521	679	
3	0	0	0	0	519	679	
4	0	0	0	0	519	678	
5	0	0	0	0	519	679	
6	0	0	0	0	519	678	
7	0	0	0	0	519	679	
8	0	0	0	0	518	679	
9	0	0	0	0	518	679	
10	0	0	0	0	518	678	
11	0	0	0	0	519	678	
12	0	0	0	0	523	679	
13	0	0	0	0	526	679	
14	0	0	0	0	529	678	
15	0	0	0	0	532	679	
0	0	0	0	0	533	679	
1	0	0	0	0	531	678	
2	0	0	0	0	528	678	
3	0	0	0	0	524	678	
4	0	0	0	0	519	679	
5	0	0	0	0	515	679	
6	0	0	0	0	513	679	
7	0	0	0	0	511	679	
8	0	0	0	0	510	679	
9	0	0	0	0	510	679	
10	0	0	0	0	511	679	
11	0	0	0	0	510	679	
12	0	0	0	0	510	679	
13	0	0	0	0	510	679	
14	0	0	0	0	511	678	
15	0	0	0	0	513	678	
0	0	0	0	0	516	678	
1	0	0	0	0	520	678	
2	0	0	0	0	524	678	
3	0	0	0	0	527	679	
4	0	0	0	0	528	679	
5	0	0	0	0	527	678	
6	0	0	0	0	524	679	
7	0	0	0	0	520	679	
8	0	0	0	0	517	679	
9	0	0	0	0	514	679	
10	0	0	0	0	512	678	
11	0	0	0	0	511	679	
12	0	0	0	0	511	679	
13	0	0	0	0	511	678	
14	0	0	0	0	511	679	
15	0	0	0	0	511	679	
0	0	0	0	0	511	679	
1	0	0	0	0	511	678	
2	0	0	0	0	511	678	
3	0	0	0	0	513	678	
4	0	0	0	0	515	678	
5	0	0	0	0	519	679	
6	0	0	0	0	523	678	
7	0	0	0	0	526	678	
8	0	0	0	0	527	679	
9	0	0	0	0	526	678	
10	0	0	0	0	522	679	
11	0	0	0	0	518	678	
12	0	0	0	0	514	678	
13	0	0	0	0	510	679	
14	0	0	0	0	507	679	
15	0	0	0	0	506	678	
0	0	0	0	0	506	679	
1	0	0	0	0	507	678	
2	0	0	0	0	508	678	
3	0	0	0	0	507	678	
4	0	0	0	0	507	678	
5	0	0	0	0	508	678	
6	0	0	0	0	509	678	
7	0	0	0	0	511	678	
8	0	0	0	0	514	678	
9	0	0	0	0	517	678	
10	0	0	0	0	520	679	
11	0	0	0	0	524	678	
12	0	0	0	0	525	678	
13	0	0	0	0	524	678	
14	0	0	0	0	522	678	
15	0	0	0	0	519	678	
0	0	0	0	0	515	678	
1	0	0	0	0	512	678	
2	0	0	0	0	509	678	
3	0	0	0	0	508	679	
4	0	0	0	0	507	679	
5	0	0	0	0	508	678	
6	0	0	0	0	509	678	
7	0	0	0	0	508	678	
8	0	0	0	0	508	678	
9	0	0	0	0	508	678	
10	0	0	0	0	509	678	
11	0	0	0	0	511	678	
12	0	0	0	0	514	678	
13	0	0	0	0	517	678	
14	0	0	0	0	520	679	
15	0	0	0	0	524	678	
0	0	0	0	0	525	678	
1	0	0	0	0	524	678	
2	0	0	0	0	521	679	
3	0	0	0	0	519	679	
4	0	0	0	0	515	679	
5	0	0	0	0	512	678	
6	0	0	0	0	509	678	
7	0	0	0	0	508	679	
8	0	0	0	0	508	679	
9	0	0	0	0	508	679	
10	0	0	0	0	509	679	
11	0	0	0	0	508	678	
12	0	0	0	0	508	678	
13	0	0	0	0	509	678	
14	0	0	0	0	510	679	
15	0	0	0	0	512	679	
0	0	0	0	0	515	678	
1	0	0	0	0	519	678	
2	0	0	0	0	522	679	
3	0	0	0	0	525	678	
4	0	0	0	0	526	678	
5	0	0	0	0	525	678	
6	0	0	0	0	522	679	
7	0	0	0	0	518	679	
8	0	0	0	0	514	679	
9	0	0	0	0	511	679	
10	0	0	0	0	509	679	
11	0	0	0	0	508	679	
12	0	0	0	0	508	679	
13	0	0	0	0	508	679	
14	0	0	0	0	509	679	
15	0	0	0	0	508	678	
0	0	0	0	0	508	678	
1	0	0	0	0	509	678	
2	0	0	0	0	511	678	
3	0	0	0	0	513	679	
4	0	0	0	0	516	678	
5	0	0	0	0	520	679	
6	0	0	0	0	523	678	
7	0	0	0	0	526	678	
8	0	0	0	0	527	678	
9	0	0	0	0	526	678	
10	0	0	0	0	524	679	
11	0	0	0	0	520	679	
12	0	0	0	0	517	679	
13	0	0	0	0	513	679	
14	0	0	0	0	510	678	
15	0	0	0	0	509	679	
0	0	0	0	0	508	679	
1	0	0	0	0	508	679	
2	0	0	0	0	509	679	
3	0	0	0	0	509	678	
4	0	0	0	0	508	678	
5	0	0	0	0	508	678	
6	0	0	0	0	509	678	
7	0	0	0	0	512	678	
8	0	0	0	0	515	678	
9	0	0	0	0	519	678	
10	0	0	0	0	522	679	
11	0	0	0	0	525	679	
12	0	0	0	0	527	679	
13	0	0	0	0	526	679	
14	0	0	0	0	524	679	
15	0	0	0	0	520	679	
0	0	0	0	0	516	679	
1	0	0	0	0	514	678	
2	0	0	0	0	512	679	
3	0	0	0	0	511	679	
4	0	0	0	0	510	678	
5	0	0	0	0	511	678	
6	0	0	0	0	512	678	
7	0	0	0	0	511	678	
8	0	0	0	0	511	678	
9	0	0	0	0	511	678	
10	0	0	0	0	512	678	
11	0	0	0	0	514	678	
12	0	0	0	0	518	678	
13	0	0	0	0	522	678	
14	0	0	0	0	525	678	
15	0	0	0	0	528	678	
0	0	0	0	0	529	679	
1	0	0	0	0	527	679	
2	0	0	0	0	525	679	
3	0	0	0	0	520	679	
4	0	0	0	0	517	679	
5	0	0	0	0	513	678	
6	0	0	0	0	510	678	
7	0	0	0	0	509	678	
8	0	0	0	0	508	678	
9	0	0	0	0	509	679	
10	0	0	0	0	510	678	
11	0	0	0	0	509	679	
12	0	0	0	0	509	678	
13	0	0	0	0	510	678	
14	0	0	0	0	512	678	
15	0	0	0	0	514	678	
0	0	0	0	0	517	678	
1	0	0	0	0	520	679	
2	0	0	0	0	523	678	
3	0	0	0	0	526	679	
4	0	0	0	0	527	678	
5	0	0	0	0	526	678	
6	0	0	0	0	523	679	
7	0	0	0	0	518	679	
8	0	0	0	0	514	678	
9	0	0	0	0	512	679	
10	0	0	0	0	509	678	
11	0	0	0	0	507	679	
12	0	0	0	0	505	679	
13	0	0	0	0	505	678	
14	0	0	0	0	506	679	
15	0	0	0	0	505	679	
0	0	0	0	0	505	679	
1	0	0	0	0	504	678	
2	0	0	0	0	506	678	
3	0	0	0	0	508	678	
4	0	0	0	0	511	678	
5	0	0	0	0	514	679	
6	0	0	0	0	518	678	
7	0	0	0	0	521	678	
8	0	0	0	0	522	678	
9	0	0	0	0	520	678	
10	0	0	0	0	516	678	
11	0	0	0	0	513	679	
12	0	0	0	0	509	678	
13	0	0	0	0	506	679	
14	0	0	0	0	504	679	
15	0	0	0	0	503	679	
0	0	0	0	0	501	678	
1	0	0	0	0	502	678	
2	0	0	0	0	502	679	
3	0	0	0	0	502	678	
4	0	0	0	0	501	678	
5	0	0	0	0	502	678	
6	0	0	0	0	504	678	
7	0	0	0	0	507	678	
8	0	0	0	0	510	678	
9	0	0	0	0	514	678	
10	0	0	0	0	517	678	
11	0	0	0	0	520	678	
12	0	0	0	0	521	679	
13	0	0	0	0	519	678	
14	0	0	0	0	517	679	
15	0	0	0	0	514	679	
0	0	0	0	0	511	679	
1	0	0	0	0	507	679	
2	0	0	0	0	504	678	
3	0	0	0	0	503	679	
4	0	0	0	0	503	679	
5	0	0	0	0	504	679	
6	0	0	0	0	504	679	
7	0	0	0	0	504	679	
8	0	0	0	0	504	678	
9	0	0	0	0	503	678	
10	0	0	0	0	504	678	
11	0	0	0	0	507	679	
12	0	0	0	0	509	678	
13	0	0	0	0	512	678	
14	0	0	0	0	516	678	
15	0	0	0	0	519	678	
0	0	0	0	0	520	679	
1	0	0	0	0	519	679	
2	0	0	0	0	515	679	
3	0	0	0	0	512	679	
4	0	0	0	0	509	678	
5	0	0	0	0	506	679	
6	0	0	0	0	504	679	
7	0	0	0	0	502	678	
8	0	0	0	0	502	679	
9	0	0	0	0	503	678	
10	0	0	0	0	503	678	
11	0	0	0	0	502	678	
12	0	0	0	0	502	678	
13	0	0	0	0	503	678	
14	0	0	0	0	504	678	
15	0	0	0	0	507	678	
0	0	0	0	0	510	678	
1	0	0	0	0	513	678	
2	0	0	0	0	516	678	
3	0	0	0	0	518	678	
4	0	0	0	0	519	678	
5	0	0	0	0	519	678	
6	0	0	0	0	516	678	
7	0	0	0	0	513	678	
8	0	0	0	0	509	678	
9	0	0	0	0	505	678	
10	0	0	0	0	503	678	
11	0	0	0	0	500	679	
12	0	0	0	0	499	678	
13	0	0	0	0	499	678	
14	0	0	0	0	499	678	
15	0	0	0	0	498	678	
0	0	0	0	0	499	678	
1	0	0	0	0	499	678	
2	0	0	0	0	499	678	
3	0	0	0	0	501	678	
4	0	0	0	0	504	678	
5	0	0	0	0	508	678	
6	0	0	0	0	512	678	
7	0	0	0	0	516	678	
8	0	0	0	0	518	678	
9	0	0	0	0	516	678	
10	0	0	0	0	513	678	
11	0	0	0	0	511	678	
12	0	0	0	0	507	678	
13	0	0	0	0	504	679	
14	0	0	0	0	502	678	
15	0	0	0	0	500	678	
0	0	0	0	0	501	678	
1	0	0	0	0	501	678	
2	0	0	0	0	502	678	
3	0	0	0	0	501	678	
4	0	0	0	0	501	678	
5	0	0	0	0	503	678	
6	0	0	0	0	504	678	
7	0	0	0	0	507	678	
8	0	0	0	0	509	678	
9	0	0	0	0	512	678	
10	0	0	0	0	514	678	
11	0	0	0	0	516	678	
12	0	0	0	0	517	678	
13	0	0	0	0	516	678	
14	0	0	0	0	513	678	
15	0	0	0	0	508	678	
0	0	0	0	0	504	678	
1	0	0	0	0	498	678	
2	0	0	0	0	494	678	
3	0	0	0	0	491	678	
4	0	0	0	0	489	678	
5	0	0	0	0	488	678	
6	0	0	0	0	487	678	
7	0	0	0	0	486	678	
8	0	0	0	0	484	678	
9	0	0	0	0	484	678	
10	0	0	0	0	484	678	
11	0	0	0	0	487	678	
12	0	0	0	0	490	678	
13	0	0	0	0	494	678	
14	0	0	0	0	497	678	
15	0	0	0	0	499	678	
0	0	0	0	0	499	678	
1	0	0	0	0	497	678	
2	0	0	0	0	493	678	
3	0	0	0	0	487	678	
4	0	0	0	0	483	678	
5	0	0	0	0	478	678	
6	0	0	0	0	475	678	
7	0	0	0	0	473	678	
8	0	0	0	0	473	678	
9	0	0	0	0	475	678	
10	0	0	0	0	477	678	
11	0	0	0	0	478	678	
12	0	0	0	0	478	678	
13	0	0	0	0	478	678	
14	0	0	0	0	479	678	
15	0	0	0	0	481	678	
0	0	0	0	0	485	678	
1	0	0	0	0	489	678	
2	0	0	0	0	494	678	
3	0	0	0	0	499	678	
4	0	0	0	0	502	678	
5	0	0	0	0	500	678	
6	0	0	0	0	498	678	
7	0	0	0	0	495	678	
8	0	0	0	0	492	678	
9	0	0	0	0	489	678	
10	0	0	0	0	487	678	
11	0	0	0	0	487	678	
12	0	0	0	0	487	678	
13	0	0	0	0	489	678	
14	0	0	0	0	491	678	
15	0	0	0	0	492	678	
0	0	0	0	0	493	678	
1	0	0	0	0	494	678	
2	0	0	0	0	496	678	
3	0	0	0	0	499	678	
4	0	0	0	0	503	678	
5	0	0	0	0	508	678	
6	0	0	0	0	512	678	
7	0	0	0	0	516	678	
8	0	0	0	0	519	678	
9	0	0	0	0	519	678	
10	0	0	0	0	516	678	
11	0	0	0	0	514	678	
12	0	0	0	0	512	678	
13	0	0	0	0	510	678	
14	0	0	0	0	509	678	
15	0	0	0	0	509	678	
0	0	0	0	0	510	678	
1	0	0	0	0	511	678	
2	0	0	0	0	512	678	
3	0	0	0	0	512	678	
4	0	0	0	0	513	678	
5	0	0	0	0	514	678	
6	0	0	0	0	516	678	
7	0	0	0	0	519	678	
8	0	0	0	0	523	678	
9	0	0	0	0	527	678	
10	0	0	0	0	531	678	
11	0	0	0	0	535	678	
12	0	0	0	0	537	678	
13	0	0	0	0	535	678	
14	0	0	0	0	532	678	
15	0	0	0	0	528	678	
0	0	0	0	0	524	678	
1	0	0	0	0	521	678	
2	0	0	0	0	519	678	
3	0	0	0	0	517	678	
4	0	0	0	0	517	678	
5	0	0	0	0	518	678	
6	0	0	0	0	519	678	
7	0	0	0	0	519	678	
8	0	0	0	0	518	678	
9	0	0	0	0	517	678	
10	0	0	0	0	519	678	
11	0	0	0	0	521	678	
12	0	0	0	0	523	678	
13	0	0	0	0	527	678	
14	0	0	0	0	529	678	
15	0	0	0	0	532	678	
0	0	0	0	0	533	678	
1	0	0	0	0	532	678	
2	0	0	0	0	529	678	
3	0	0	0	0	526	678	
4	0	0	0	0	521	678	
5	0	0	0	0	518	678	
6	0	0	0	0	516	678	
7	0	0	0	0	514	678	
8	0	0	0	0	513	678	
9	0	0	0	0	514	678	
10	0	0	0	0	514	678	
11	0	0	0	0	512	678	
12	0	0	0	0	511	678	
13	0	0	0	0	510	678	
14	0	0	0	0	511	678	
15	0	0	0	0	513	678	
0	0	0	0	0	516	678	
1	0	0	0	0	520	678	
2	0	0	0	0	523	678	
3	0	0	0	0	526	678	
4	0	0	0	0	526	678	
5	0	0	0	0	525	678	
6	0	0	0	0	521	678	
7	0	0	0	0	517	678	
8	0	0	0	0	512	678	
9	0	0	0	0	508	678	
10	0	0	0	0	504	678	
11	0	0	0	0	501	678	
12	0	0	0	0	499	678	
13	0	0	0	0	498	678	
14	0	0	0	0	498	678	
15	0	0	0	0	496	678	
0	0	0	0	0	496	678	
1	0	0	0	0	496	678	
2	0	0	0	0	497	678	
3	0	0	0	0	499	678	
4	0	0	0	0	501	678	
5	0	0	0	0	505	678	
6	0	0	0	0	508	678	
7	0	0	0	0	512	678	
8	0	0	0	0	514	678	
9	0	0	0	0	514	678	
10	0	0	0	0	512	678	
11	0	0	0	0	511	678	
12	0	0	0	0	509	678	
13	0	0	0	0	508	678	
14	0	0	0	0	505	678	
15	0	0	0	0	504	678	
0	0	0	0	0	502	678	
1	0	0	0	0	500	678	
2	0	0	0	0	495	678	
3	0	0	0	0	488	677	
4	0	0	0	0	481	678	
5	0	0	0	0	474	678	
6	0	0	0	0	466	677	
7	0	0	0	0	457	678	
8	0	0	0	0	448	677	
9	0	0	0	0	435	677	
10	0	0	0	0	423	678	
11	0	0	0	0	411	678	
12	0	0	0	0	397	677	
13	0	0	0	0	378	678	
14	0	0	0	0	357	678	
15	0	0	0	0	333	678	
0	0	0	0	0	305	678	
1	0	0	0	0	273	678	
2	0	0	0	0	238	678	
3	0	0	0	0	199	678	
4	0	0	0	0	158	678	
5	0	0	0	0	116	677	
6	0	0	0	0	71	677	
7	0	0	0	0	23	677	
8	0	0	0	0	0	677	
9	0	0	0	0	0	677	
10	0	0	0	0	0	677	
11	0	0	0	0	0	677	
12	0	0	0	0	0	676	
13	0	0	0	0	0	677	
14	0	0	0	0	0	677	
15	0	0	0	0	0	676	
0	0	0	0	0	0	677	
1	0	0	0	0	0	677	
2	0	0	0	0	0	677	
3	0	0	0	0	0	677	
4	0	0	0	0	0	677	
5	0	0	0	0	29	677	
6	0	0	0	0	103	677	
7	0	0	0	0	191	677	
8	0	0	0	0	293	677	
9	0	0	0	0	397	676	
10	0	0	0	0	495	677	
11	0	0	0	0	585	677	
12	0	0	0	0	662	677	
13	0	0	0	0	724	677	
14	0	0	0	0	772	676	
15	0	0	0	0	808	677	
0	0	0	0	0	834	676	
1	0	0	0	0	854	676	
2	0	0	0	0	866	676	
3	0	0	0	0	871	677	
4	0	0	0	0	869	677	
5	0	0	0	0	861	677	
6	0	0	0	0	848	676	
7	0	0	0	0	830	677	
8	0	0	0	0	811	676	
9	0	0	0	0	793	677	
10	0	0	0	0	775	677	
11	0	0	0	0	758	677	
12	0	0	0	0	742	677	
13	0	0	0	0	728	677	
14	0	0	0	0	716	677	
15	0	0	0	0	703	677	
0	0	0	0	0	691	677	
1	0	0	0	0	679	677	
2	0	0	0	0	670	677	
3	0	0	0	0	662	677	
4	0	0	0	0	655	676	
5	0	0	0	0	651	677	
6	0	0	0	0	646	677	
7	0	0	0	0	642	677	
8	0	0	0	0	639	677	
9	0	0	0	0	632	677	
10	0	0	0	0	625	677	
11	0	0	0	0	617	677	
12	0	0	0	0	611	677	
13	0	0	0	0	606	677	
14	0	0	0	0	602	677	
15	0	0	0	0	598	677	
0	0	0	0	0	597	677	
1	0	0	0	0	596	677	
2	0	0	0	0	595	677	
3	0	0	0	0	593	677	
4	0	0	0	0	592	677	
5	0	0	0	0	591	677	
6	0	0	0	0	592	677	
7	0	0	0	0	594	677	
8	0	0	0	0	596	677	
9	0	0	0	0	599	677	
10	0	0	0	0	601	677	
11	0	0	0	0	604	677	
12	0	0	0	0	604	677	
13	0	0	0	0	602	677	
14	0	0	0	0	598	677	
15	0	0	0	0	593	677	
0	0	0	0	0	589	677	
1	0	0	0	0	584	677	
2	0	0	0	0	580	677	
3	0	0	0	0	578	677	
4	0	0	0	0	577	677	
5	0	0	0	0	577	677	
6	0	0	0	0	575	677	
7	0	0	0	0	574	676	
8	0	0	0	0	573	677	
9	0	0	0	0	572	676	
10	0	0	0	0	572	677	
11	0	0	0	0	573	677	
12	0	0	0	0	575	677	
13	0	0	0	0	577	677	
14	0	0	0	0	579	677	
15	0	0	0	0	582	677	
0	0	0	0	0	581	677	
1	0	0	0	0	579	677	
2	0	0	0	0	575	677	
3	0	0	0	0	569	677	
4	0	0	0	0	565	677	
5	0	0	0	0	560	677	
6	0	0	0	0	557	677	
7	0	0	0	0	555	677	
8	0	0	0	0	553	677	
9	0	0	0	0	553	677	
10	0	0	0	0	552	677	
11	0	0	0	0	550	677	
12	0	0	0	0	548	677	
13	0	0	0	0	548	676	
14	0	0	0	0	548	676	
15	0	0	0	0	550	677	
0	0	0	0	0	552	676	
1	0	0	0	0	555	677	
2	0	0	0	0	558	677	
3	0	0	0	0	560	676	
4	0	0	0	0	560	676	
5	0	0	0	0	558	677	
6	0	0	0	0	554	677	
7	0	0	0	0	550	676	
8	0	0	0	0	546	677	
9	0	0	0	0	543	677	
10	0	0	0	0	540	677	
11	0	0	0	0	538	677	
12	0	0	0	0	537	677	
13	0	0	0	0	537	676	
14	0	0	0	0	538	677	
15	0	0	0	0	537	676	
0	0	0	0	0	537	676	
1	0	0	0	0	537	677	
2	0	0	0	0	537	677	
3	0	0	0	0	539	677	
4	0	0	0	0	542	676	
5	0	0	0	0	544	676	
6	0	0	0	0	546	676	
7	0	0	0	0	548	677	
8	0	0	0	0	549	676	
9	0	0	0	0	547	677	
10	0	0	0	0	543	677	
11	0	0	0	0	540	677	
12	0	0	0	0	535	677	
13	0	0	0	0	531	677	
14	0	0	0	0	528	676	
15	0	0	0	0	527	677	
0	0	0	0	0	527	676	
1	0	0	0	0	527	676	
2	0	0	0	0	527	676	
3	0	0	0	0	527	676	
4	0	0	0	0	527	677	
5	0	0	0	0	527	676	
6	0	0	0	0	529	676	
7	0	0	0	0	531	677	
8	0	0	0	0	533	676	
9	0	0	0	0	535	676	
10	0	0	0	0	537	676	
11	0	0	0	0	540	676	
12	0	0	0	0	540	676	
13	0	0	0	0	537	676	
14	0	0	0	0	534	677	
15	0	0	0	0	531	676	
0	0	0	0	0	528	677	
1	0	0	0	0	525	676	
2	0	0	0	0	522	676	
3	0	0	0	0	520	676	
4	0	0	0	0	519	676	
5	0	0	0	0	520	676	
6	0	0	0	0	520	676	
7	0	0	0	0	519	676	
8	0	0	0	0	518	677	
9	0	0	0	0	518	676	
10	0	0	0	0	519	676	
11	0	0	0	0	522	676	
12	0	0	0	0	525	676	
13	0	0	0	0	528	676	
14	0	0	0	0	531	676	
15	0	0	0	0	533	676	
0	0	0	0	0	533	676	
1	0	0	0	0	530	676	
2	0	0	0	0	526	676	
3	0	0	0	0	521	676	
4	0	0	0	0	515	676	
5	0	0	0	0	512	676	
6	0	0	0	0	508	676	
7	0	0	0	0	506	676	
8	0	0	0	0	506	676	
9	0	0	0	0	507	676	
10	0	0	0	0	507	676	
11	0	0	0	0	506	676	
12	0	0	0	0	505	676	
13	0	0	0	0	504	676	
14	0	0	0	0	506	676	
15	0	0	0	0	508	676	
0	0	0	0	0	510	676	
1	0	0	0	0	513	676	
2	0	0	0	0	516	676	
3	0	0	0	0	519	676	
4	0	0	0	0	519	676	
5	0	0	0	0	517	676	
6	0	0	0	0	513	676	
7	0	0	0	0	510	676	
8	0	0	0	0	506	676	
9	0	0	0	0	503	676	
10	0	0	0	0	499	676	
11	0	0	0	0	497	676	
12	0	0	0	0	496	676	
13	0	0	0	0	496	676	
14	0	0	0	0	496	676	
15	0	0	0	0	495	676	
0	0	0	0	0	494	676	
1	0	0	0	0	494	676	
2	0	0	0	0	495	676	
3	0	0	0	0	497	676	
4	0	0	0	0	500	676	
5	0	0	0	0	503	676	
6	0	0	0	0	506	676	
7	0	0	0	0	508	676	
8	0	0	0	0	507	676	
9	0	0	0	0	504	676	
10	0	0	0	0	500	676	
11	0	0	0	0	495	676	
12	0	0	0	0	491	676	
13	0	0	0	0	487	676	
14	0	0	0	0	484	676	
15	0	0	0	0	482	676	
0	0	0	0	0	481	676	
1	0	0	0	0	481	676	
2	0	0	0	0	481	676	
3	0	0	0	0	479	676	
4	0	0	0	0	478	676	
5	0	0	0	0	478	676	
6	0	0	0	0	479	676	
7	0	0	0	0	481	676	
8	0	0	0	0	484	676	
9	0	0	0	0	487	676	
10	0	0	0	0	490	676	
11	0	0	0	0	492	676	
12	0	0	0	0	493	676	
13	0	0	0	0	490	676	
14	0	0	0	0	487	676	
15	0	0	0	0	483	676	
0	0	0	0	0	479	676	
1	0	0	0	0	475	676	
2	0	0	0	0	472	676	
3	0	0	0	0	472	676	
4	0	0	0	0	471	676	
5	0	0	0	0	470	676	
6	0	0	0	0	469	676	
7	0	0	0	0	469	676	
8	0	0	0	0	469	675	
9	0	0	0	0	470	676	
10	0	0	0	0	472	676	
11	0	0	0	0	475	675	
12	0	0	0	0	478	675	
13	0	0	0	0	482	676	
14	0	0	0	0	485	676	
15	0	0	0	0	489	676	
0	0	0	0	0	490	676	
1	0	0	0	0	488	675	
2	0	0	0	0	486	676	
3	0	0	0	0	481	676	
4	0	0	0	0	478	676	
5	0	0	0	0	475	676	
6	0	0	0	0	472	675	
7	0	0	0	0	472	676	
8	0	0	0	0	471	676	
9	0	0	0	0	471	676	
10	0	0	0	0	472	676	
11	0	0	0	0	472	676	
12	0	0	0	0	474	676	
13	0	0	0	0	474	675	
14	0	0	0	0	477	675	
15	0	0	0	0	480	675	
0	0	0	0	0	484	675	
1	0	0	0	0	489	676	
2	0	0	0	0	493	676	
3	0	0	0	0	496	675	
4	0	0	0	0	498	675	
5	0	0	0	0	497	675	
6	0	0	0	0	495	676	
7	0	0	0	0	492	676	
8	0	0	0	0	490	676	
9	0	0	0	0	488	675	
10	0	0	0	0	487	675	
11	0	0	0	0	487	676	
12	0	0	0	0	487	675	
13	0	0	0	0	489	676	
14	0	0	0	0	491	675	
15	0	0	0	0	491	676	
0	0	0	0	0	493	675	
1	0	0	0	0	494	675	
2	0	0	0	0	497	675	
3	0	0	0	0	502	675	
4	0	0	0	0	507	675	
5	0	0	0	0	512	675	
6	0	0	0	0	517	675	
7	0	0	0	0	522	675	
8	0	0	0	0	524	675	
9	0	0	0	0	523	675	
10	0	0	0	0	521	675	
11	0	0	0	0	519	676	
12	0	0	0	0	517	675	
13	0	0	0	0	515	676	
14	0	0	0	0	514	675	
15	0	0	0	0	514	675	
0	0	0	0	0	516	675	
1	0	0	0	0	518	675	
2	0	0	0	0	519	675	
3	0	0	0	0	520	675	
4	0	0	0	0	521	675	
5	0	0	0	0	524	675	
6	0	0	0	0	527	675	
7	0	0	0	0	531	675	
8	0	0	0	0	535	675	
9	0	0	0	0	539	675	
10	0	0	0	0	543	675	
11	0	0	0	0	547	676	
12	0	0	0	0	548	675	
13	0	0	0	0	548	675	
14	0	0	0	0	546	675	
15	0	0	0	0	543	675	
0	0	0	0	0	540	675	
1	0	0	0	0	538	676	
2	0	0	0	0	537	675	
3	0	0	0	0	537	675	
4	0	0	0	0	538	675	
5	0	0	0	0	539	675	
6	0	0	0	0	539	675	
7	0	0	0	0	539	675	
8	0	0	0	0	539	675	
9	0	0	0	0	541	675	
10	0	0	0	0	543	675	
11	0	0	0	0	546	675	
12	0	0	0	0	550	675	
13	0	0	0	0	555	675	
14	0	0	0	0	558	675	
15	0	0	0	0	561	675	
0	0	0	0	0	562	675	
1	0	0	0	0	561	675	
2	0	0	0	0	558	675	
3	0	0	0	0	553	675	
4	0	0	0	0	550	675	
5	0	0	0	0	547	675	
6	0	0	0	0	544	675	
7	0	0	0	0	543	675	
8	0	0	0	0	544	675	
9	0	0	0	0	545	676	
10	0	0	0	0	545	675	
11	0	0	0	0	544	675	
12	0	0	0	0	544	675	
13	0	0	0	0	545	675	
14	0	0	0	0	546	675	
15	0	0	0	0	548	675	
0	0	0	0	0	551	675	
1	0	0	0	0	555	675	
2	0	0	0	0	558	675	
3	0	0	0	0	560	675	
4	0	0	0	0	562	675	
5	0	0	0	0	560	675	
6	0	0	0	0	558	675	
7	0	0	0	0	553	675	
8	0	0	0	0	549	675	
9	0	0	0	0	546	675	
10	0	0	0	0	543	675	
11	0	0	0	0	542	675	
12	0	0	0	0	542	675	
13	0	0	0	0	542	675	
14	0	0	0	0	541	675	
15	0	0	0	0	540	675	
0	0	0	0	0	541	675	
1	0	0	0	0	541	675	
2	0	0	0	0	542	675	
3	0	0	0	0	543	675	
4	0	0	0	0	546	675	
5	0	0	0	0	549	675	
6	0	0	0	0	551	675	
7	0	0	0	0	554	675	
8	0	0	0	0	554	675	
9	0	0	0	0	552	675	
10	0	0	0	0	548	675	
11	0	0	0	0	544	675	
12	0	0	0	0	540	675	
13	0	0	0	0	535	675	
14	0	0	0	0	533	675	
15	0	0	0	0	533	675	
0	0	0	0	0	532	675	
1	0	0	0	0	533	675	
2	0	0	0	0	534	675	
3	0	0	0	0	534	675	
4	0	0	0	0	534	675	
5	0	0	0	0	534	675	
6	0	0	0	0	536	675	
7	0	0	0	0	537	675	
8	0	0	0	0	541	675	
9	0	0	0	0	544	675	
10	0	0	0	0	546	675	
11	0	0	0	0	548	675	
12	0	0	0	0	548	675	
13	0	0	0	0	545	675	
14	0	0	0	0	541	675	
15	0	0	0	0	537	675	
0	0	0	0	0	534	675	
1	0	0	0	0	530	675	
2	0	0	0	0	527	675	
3	0	0	0	0	526	675	
4	0	0	0	0	524	675	
5	0	0	0	0	525	675	
6	0	0	0	0	526	675	
7	0	0	0	0	524	675	
8	0	0	0	0	523	675	
9	0	0	0	0	523	675	
10	0	0	0	0	525	675	
11	0	0	0	0	527	675	
12	0	0	0	0	529	675	
13	0	0	0	0	532	675	
14	0	0	0	0	535	675	
15	0	0	0	0	538	675	
0	0	0	0	0	539	675	
1	0	0	0	0	536	675	
2	0	0	0	0	532	675	
3	0	0	0	0	528	675	
4	0	0	0	0	524	675	
5	0	0	0	0	521	675	
6	0	0	0	0	519	675	
7	0	0	0	0	518	675	
8	0	0	0	0	518	675	
9	0	0	0	0	519	675	
10	0	0	0	0	520	675	
11	0	0	0	0	519	675	
12	0	0	0	0	518	675	
13	0	0	0	0	519	675	
14	0	0	0	0	520	675	
15	0	0	0	0	522	675	
0	0	0	0	0	525	675	
1	0	0	0	0	528	675	
2	0	0	0	0	531	675	
3	0	0	0	0	533	675	
4	0	0	0	0	534	675	
5	0	0	0	0	532	675	
6	0	0	0	0	529	675	
7	0	0	0	0	524	675	
8	0	0	0	0	521	675	
9	0	0	0	0	518	675	
10	0	0	0	0	515	675	
11	0	0	0	0	513	675	
12	0	0	0	0	512	675	
13	0	0	0	0	513	675	
14	0	0	0	0	512	675	
15	0	0	0	0	511	675	
0	0	0	0	0	511	675	
1	0	0	0	0	511	675	
2	0	0	0	0	512	675	
3	0	0	0	0	515	675	
4	0	0	0	0	519	675	
5	0	0	0	0	523	675	
6	0	0	0	0	526	675	
7	0	0	0	0	528	675	
8	0	0	0	0	529	675	
9	0	0	0	0	527	675	
10	0	0	0	0	524	675	
11	0	0	0	0	520	675	
12	0	0	0	0	516	675	
13	0	0	0	0	513	675	
14	0	0	0	0	511	675	
15	0	0	0	0	509	675	
0	0	0	0	0	509	675	
1	0	0	0	0	510	675	
2	0	0	0	0	510	675	
3	0	0	0	0	510	675	
4	0	0	0	0	510	675	
5	0	0	0	0	510	675	
6	0	0	0	0	512	675	
7	0	0	0	0	514	675	
8	0	0	0	0	516	675	
9	0	0	0	0	520	675	
10	0	0	0	0	523	675	
11	0	0	0	0	526	675	
12	0	0	0	0	526	675	
13	0	0	0	0	524	675	
14	0	0	0	0	521	675	
15	0	0	0	0	517	675	
0	0	0	0	0	513	675	
1	0	0	0	0	511	675	
2	0	0	0	0	508	675	
3	0	0	0	0	506	675	
4	0	0	0	0	507	675	
5	0	0	0	0	508	675	
6	0	0	0	0	508	675	
7	0	0	0	0	508	675	
8	0	0	0	0	508	675	
9	0	0	0	0	509	675	
10	0	0	0	0	511	675	
11	0	0	0	0	513	675	
12	0	0	0	0	517	675	
13	0	0	0	0	519	675	
14	0	0	0	0	522	675	
15	0	0	0	0	524	675	
0	0	0	0	0	524	675	
1	0	0	0	0	523	675	
2	0	0	0	0	520	675	
3	0	0	0	0	516	675	
4	0	0	0	0	512	675	
5	0	0	0	0	510	675	
6	0	0	0	0	508	675	
7	0	0	0	0	506	675	
8	0	0	0	0	506	675	
9	0	0	0	0	507	675	
10	0	0	0	0	508	675	
11	0	0	0	0	508	675	
12	0	0	0	0	508	675	
13	0	0	0	0	508	675	
14	0	0	0	0	510	675	
15	0	0	0	0	512	675	
0	0	0	0	0	515	675	
1	0	0	0	0	518	675	
2	0	0	0	0	522	675	
3	0	0	0	0	524	675	
4	0	0	0	0	524	675	
5	0	0	0	0	522	675	
6	0	0	0	0	519	675	
7	0	0	0	0	515	675	
8	0	0	0	0	512	675	
9	0	0	0	0	509	675	
10	0	0	0	0	508	675	
11	0	0	0	0	506	675	
12	0	0	0	0	505	675	
13	0	0	0	0	507	676	
14	0	0	0	0	508	675	
15	0	0	0	0	508	675	
0	0	0	0	0	508	675	
1	0	0	0	0	509	675	
2	0	0	0	0	512	675	
3	0	0	0	0	514	675	
4	0	0	0	0	517	675	
5	0	0	0	0	520	675	
6	0	0	0	0	523	675	
7	0	0	0	0	526	675	
8	0	0	0	0	526	675	
9	0	0	0	0	524	675	
10	0	0	0	0	520	675	
11	0	0	0	0	517	676	
12	0	0	0	0	514	675	
13	0	0	0	0	511	676	
14	0	0	0	0	509	675	
15	0	0	0	0	509	675	
0	0	0	0	0	508	675	
1	0	0	0	0	509	675	
2	0	0	0	0	509	675	
3	0	0	0	0	508	675	
4	0	0	0	0	508	675	
5	0	0	0	0	509	675	
6	0	0	0	0	511	675	
7	0	0	0	0	513	675	
8	0	0	0	0	515	675	
9	0	0	0	0	519	675	
10	0	0	0	0	522	675	
11	0	0	0	0	525	675	
12	0	0	0	0	525	675	
13	0	0	0	0	523	675	
14	0	0	0	0	519	676	
15	0	0	0	0	516	675	
0	0	0	0	0	512	675	
1	0	0	0	0	509	675	
2	0	0	0	0	506	675	
3	0	0	0	0	505	675	
4	0	0	0	0	504	675	
5	0	0	0	0	505	676	
6	0	0	0	0	505	675	
7	0	0	0	0	505	675	
8	0	0	0	0	505	675	
9	0	0	0	0	507	675	
10	0	0	0	0	508	675	
11	0	0	0	0	512	675	
12	0	0	0	0	515	675	
13	0	0	0	0	518	675	
14	0	0	0	0	521	675	
15	0	0	0	0	522	675	
0	0	0	0	0	522	676	
1	0	0	0	0	520	675	
2	0	0	0	0	518	675	
3	0	0	0	0	514	675	
4	0	0	0	0	511	675	
5	0	0	0	0	508	675	
6	0	0	0	0	506	675	
7	0	0	0	0	505	675	
8	0	0	0	0	506	676	
9	0	0	0	0	506	675	
10	0	0	0	0	506	675	
11	0	0	0	0	505	675	
12	0	0	0	0	505	675	
13	0	0	0	0	506	675	
14	0	0	0	0	507	675	
15	0	0	0	0	510	675	
0	0	0	0	0	513	675	
1	0	0	0	0	517	676	
2	0	0	0	0	520	675	
3	0	0	0	0	523	676	
4	0	0	0	0	524	675	
5	0	0	0	0	521	675	
6	0	0	0	0	519	675	
7	0	0	0	0	515	676	
8	0	0	0	0	511	675	
9	0	0	0	0	508	676	
10	0	0	0	0	505	675	
11	0	0	0	0	504	676	
12	0	0	0	0	503	675	
13	0	0	0	0	504	675	
14	0	0	0	0	503	675	
15	0	0	0	0	503	675	
0	0	0	0	0	503	676	
1	0	0	0	0	503	675	
2	0	0	0	0	505	675	
3	0	0	0	0	508	675	
4	0	0	0	0	510	675	
5	0	0	0	0	513	675	
6	0	0	0	0	516	675	
7	0	0	0	0	519	676	
8	0	0	0	0	520	675	
9	0	0	0	0	518	675	
10	0	0	0	0	515	676	
11	0	0	0	0	511	676	
12	0	0	0	0	508	676	
13	0	0	0	0	506	676	
14	0	0	0	0	503	675	
15	0	0	0	0	502	676	
0	0	0	0	0	502	676	
1	0	0	0	0	503	676	
2	0	0	0	0	504	675	
3	0	0	0	0	503	675	
4	0	0	0	0	502	676	
5	0	0	0	0	503	676	
6	0	0	0	0	505	676	
7	0	0	0	0	508	676	
8	0	0	0	0	511	676	
9	0	0	0	0	514	675	
10	0	0	0	0	518	676	
11	0	0	0	0	519	675	
12	0	0	0	0	519	676	
13	0	0	0	0	517	676	
14	0	0	0	0	514	676	
15	0	0	0	0	510	676	
0	0	0	0	0	507	676	
1	0	0	0	0	504	676	
2	0	0	0	0	502	676	
3	0	0	0	0	501	676	
4	0	0	0	0	501	676	
5	0	0	0	0	502	676	
6	0	0	0	0	502	676	
7	0	0	0	0	501	676	
8	0	0	0	0	500	676	
9	0	0	0	0	501	675	
10	0	0	0	0	503	676	
11	0	0	0	0	505	676	
12	0	0	0	0	508	676	
13	0	0	0	0	512	676	
14	0	0	0	0	516	676	
15	0	0	0	0	519	676	
0	0	0	0	0	519	676	
1	0	0	0	0	516	676	
2	0	0	0	0	512	676	
3	0	0	0	0	508	676	
4	0	0	0	0	504	676	
5	0	0	0	0	501	676	
6	0	0	0	0	499	676	
7	0	0	0	0	499	676	
8	0	0	0	0	499	676	
9	0	0	0	0	500	676	
10	0	0	0	0	499	676	
11	0	0	0	0	498	676	
12	0	0	0	0	499	676	
13	0	0	0	0	500	676	
14	0	0	0	0	502	676	
15	0	0	0	0	505	676	
0	0	0	0	0	509	676	
1	0	0	0	0	512	676	
2	0	0	0	0	515	676	
3	0	0	0	0	518	676	
4	0	0	0	0	519	676	
5	0	0	0	0	516	676	
6	0	0	0	0	514	676	
7	0	0	0	0	510	676	
8	0	0	0	0	507	676	
9	0	0	0	0	504	676	
10	0	0	0	0	502	676	
11	0	0	0	0	500	676	
12	0	0	0	0	500	676	
13	0	0	0	0	500	676	
14	0	0	0	0	501	676	
15	0	0	0	0	500	676	
0	0	0	0	0	500	676	
1	0	0	0	0	502	676	
2	0	0	0	0	503	676	
3	0	0	0	0	507	676	
4	0	0	0	0	510	676	
5	0	0	0	0	514	676	
6	0	0	0	0	519	676	
7	0	0	0	0	522	676	
8	0	0	0	0	523	676	
9	0	0	0	0	521	676	
10	0	0	0	0	518	676	
11	0	0	0	0	514	676	
12	0	0	0	0	510	676	
13	0	0	0	0	506	676	
14	0	0	0	0	503	676	
15	0	0	0	0	501	677	
0	0	0	0	0	501	676	
1	0	0	0	0	500	676	
2	0	0	0	0	500	676	
3	0	0	0	0	499	676	
4	0	0	0	0	499	676	
5	0	0	0	0	499	676	
6	0	0	0	0	502	676	
7	0	0	0	0	504	676	
8	0	0	0	0	506	676	
9	0	0	0	0	509	676	
10	0	0	0	0	511	677	
11	0	0	0	0	513	676	
12	0	0	0	0	512	676	
13	0	0	0	0	510	676	
14	0	0	0	0	504	677	
15	0	0	0	0	498	677	
0	0	0	0	0	493	676	
1	0	0	0	0	488	677	
2	0	0	0	0	483	676	
3	0	0	0	0	481	677	
4	0	0	0	0	481	676	
5	0	0	0	0	482	677	
6	0	0	0	0	482	677	
7	0	0	0	0	482	676	
8	0	0	0	0	482	676	
9	0	0	0	0	483	676	
10	0	0	0	0	484	676	
11	0	0	0	0	486	676	
12	0	0	0	0	488	676	
13	0	0	0	0	490	677	
14	0	0	0	0	493	676	
15	0	0	0	0	494	676	
0	0	0	0	0	493	677	
1	0	0	0	0	491	676	
2	0	0	0	0	488	677	
3	0	0	0	0	484	677	
4	0	0	0	0	481	676	
5	0	0	0	0	478	677	
6	0	0	0	0	476	677	
7	0	0	0	0	475	676	
8	0	0	0	0	475	677	
9	0	0	0	0	477	677	
10	0	0	0	0	479	677	
11	0	0	0	0	480	677	
12	0	0	0	0	481	676	
13	0	0	0	0	484	677	
14	0	0	0	0	487	677	
15	0	0	0	0	490	677	
0	0	0	0	0	494	677	
1	0	0	0	0	498	677	
2	0	0	0	0	502	677	
3	0	0	0	0	505	677	
4	0	0	0	0	505	677	
5	0	0	0	0	504	677	
6	0	0	0	0	502	677	
7	0	0	0	0	500	677	
8	0	0	0	0	498	677	
9	0	0	0	0	496	677	
10	0	0	0	0	494	677	
11	0	0	0	0	494	677	
12	0	0	0	0	495	677	
13	0	0	0	0	496	677	
14	0	0	0	0	497	677	
15	0	0	0	0	498	677	
0	0	0	0	0	499	677	
1	0	0	0	0	502	677	
2	0	0	0	0	505	677	
3	0	0	0	0	509	677	
4	0	0	0	0	513	677	
5	0	0	0	0	518	677	
6	0	0	0	0	524	677	
7	0	0	0	0	528	677	
8	0	0	0	0	529	677	
9	0	0	0	0	527	677	
10	0	0	0	0	525	677	
11	0	0	0	0	521	677	
12	0	0	0	0	519	677	
13	0	0	0	0	517	678	
14	0	0	0	0	516	677	
15	0	0	0	0	515	677	
0	0	0	0	0	516	677	
1	0	0	0	0	518	677	
2	0	0	0	0	519	677	
3	0	0	0	0	519	677	
4	0	0	0	0	519	678	
5	0	0	0	0	521	677	
6	0	0	0	0	523	677	
7	0	0	0	0	526	677	
8	0	0	0	0	529	677	
9	0	0	0	0	532	677	
10	0	0	0	0	536	677	
11	0	0	0	0	537	677	
12	0	0	0	0	537	678	
13	0	0	0	0	534	677	
14	0	0	0	0	531	678	
15	0	0	0	0	526	677	
0	0	0	0	0	521	678	
1	0	0	0	0	518	678	
2	0	0	0	0	516	678	
3	0	0	0	0	515	678	
4	0	0	0	0	515	678	
5	0	0	0	0	515	678	
6	0	0	0	0	515	678	
7	0	0	0	0	514	678	
8	0	0	0	0	513	678	
9	0	0	0	0	514	678	
10	0	0	0	0	516	677	
11	0	0	0	0	519	678	
12	0	0	0	0	522	678	
13	0	0	0	0	525	678	
14	0	0	0	0	529	678	
15	0	0	0	0	532	678	
0	0	0	0	0	531	678	
1	0	0	0	0	529	678	
2	0	0	0	0	526	678	
3	0	0	0	0	521	678	
4	0	0	0	0	518	678	
5	0	0	0	0	514	678	
6	0	0	0	0	512	678	
7	0	0	0	0	511	678	
8	0	0	0	0	510	678	
9	0	0	0	0	510	678	
10	0	0	0	0	509	678	
11	0	0	0	0	509	678	
12	0	0	0	0	509	678	
13	0	0	0	0	510	678	
14	0	0	0	0	512	678	
15	0	0	0	0	514	678	
0	0	0	0	0	518	678	
1	0	0	0	0	521	678	
2	0	0	0	0	524	678	
3	0	0	0	0	527	678	
4	0	0	0	0	526	678	
5	0	0	0	0	523	678	
6	0	0	0	0	519	678	
7	0	0	0	0	514	678	
8	0	0	0	0	510	678	
9	0	0	0	0	506	679	
10	0	0	0	0	503	678	
11	0	0	0	0	502	679	
12	0	0	0	0	502	679	
13	0	0	0	0	503	678	
14	0	0	0	0	503	678	
15	0	0	0	0	503	678	
0	0	0	0	0	503	679	
1	0	0	0	0	505	678	
2	0	0	0	0	508	678	
3	0	0	0	0	512	678	
4	0	0	0	0	518	678	
5	0	0	0	0	522	679	
6	0	0	0	0	527	678	
7	0	0	0	0	532	679	
8	0	0	0	0	533	679	
9	0	0	0	0	531	679	
10	0	0	0	0	527	679	
11	0	0	0	0	522	679	
12	0	0	0	0	515	679	
13	0	0	0	0	507	679	
14	0	0	0	0	498	679	
15	0	0	0	0	491	679	
0	0	0	0	0	483	679	
1	0	0	0	0	474	679	
2	0	0	0	0	462	679	
3	0	0	0	0	448	679	
4	0	0	0	0	433	679	
5	0	0	0	0	419	679	
6	0	0	0	0	407	679	
7	0	0	0	0	395	679	
8	0	0	0	0	381	679	
9	0	0	0	0	365	679	
10	0	0	0	0	348	679	
11	0	0	0	0	327	679	
12	0	0	0	0	298	679	
13	0	0	0	0	262	679	
14	0	0	0	0	220	679	
15	0	0	0	0	174	679	
0	0	0	0	0	127	679	
1	0	0	0	0	79	679	
2	0	0	0	0	27	679	
3	0	0	0	0	0	679	
4	0	0	0	0	0	679	
5	0	0	0	0	0	679	
6	0	0	0	0	0	679	
7	0	0	0	0	0	679	
8	0	0	0	0	0	679	
9	0	0	0	0	0	679	
10	0	0	0	0	0	679	
11	0	0	0	0	0	679	
12	0	0	0	0	0	679	
13	0	0	0	0	0	679	
14	0	0	0	0	0	679	
15	0	0	0	0	0	679	
0	0	0	0	0	67	679	
1	0	0	0	0	142	679	
2	0	0	0	0	231	679	
3	0	0	0	0	331	679	
4	0	0	0	0	429	679	
5	0	0	0	0	522	679	
6	0	0	0	0	608	679	
7	0	0	0	0	680	679	
8	0	0	0	0	737	679	
9	0	0	0	0	783	679	
10	0	0	0	0	814	679	
11	0	0	0	0	834	679	
12	0	0	0	0	848	679	
13	0	0	0	0	855	679	
14	0	0	0	0	857	679	
15	0	0	0	0	855	679	
0	0	0	0	0	850	679	
1	0	0	0	0	843	679	
2	0	0	0	0	831	679	
3	0	0	0	0	817	679	
4	0	0	0	0	802	679	
5	0	0	0	0	784	679	
6	0	0	0	0	765	680	
7	0	0	0	0	746	680	
8	0	0	0	0	729	679	
9	0	0	0	0	714	679	
10	0	0	0	0	698	680	
11	0	0	0	0	684	680	
12	0	0	0	0	673	680	
13	0	0	0	0	662	680	
14	0	0	0	0	652	679	
15	0	0	0	0	642	680	
0	0	0	0	0	633	679	
1	0	0	0	0	627	680	
2	0	0	0	0	623	679	
3	0	0	0	0	620	680	
4	0	0	0	0	619	679	
5	0	0	0	0	619	679	
6	0	0	0	0	620	680	
7	0	0	0	0	620	680	
8	0	0	0	0	618	680	
9	0	0	0	0	614	680	
10	0	0	0	0	609	680	
11	0	0	0	0	604	680	
12	0	0	0	0	599	680	
13	0	0	0	0	595	680	
14	0	0	0	0	592	680	
15	0	0	0	0	590	680	
0	0	0	0	0	590	680	
1	0	0	0	0	590	680	
2	0	0	0	0	589	681	
3	0	0	0	0	587	680	
4	0	0	0	0	586	680	
5	0	0	0	0	586	680	
6	0	0	0	0	587	680	
7	0	0	0	0	588	680	
8	0	0	0	0	589	680	
9	0	0	0	0	591	681	
10	0	0	0	0	593	681	
11	0	0	0	0	594	681	
12	0	0	0	0	593	681	
13	0	0	0	0	590	681	
14	0	0	0	0	586	681	
15	0	0	0	0	581	681	
0	0	0	0	0	576	681	
1	0	0	0	0	572	681	
2	0	0	0	0	569	681	
3	0	0	0	0	568	681	
4	0	0	0	0	567	681	
5	0	0	0	0	567	681	
6	0	0	0	0	566	681	
7	0	0	0	0	565	681	
8	0	0	0	0	563	681	
9	0	0	0	0	564	681	
10	0	0	0	0	566	681	
11	0	0	0	0	567	681	
12	0	0	0	0	569	681	
13	0	0	0	0	572	681	
14	0	0	0	0	575	681	
15	0	0	0	0	576	681	
0	0	0	0	0	575	681	
1	0	0	0	0	571	681	
2	0	0	0	0	567	682	
3	0	0	0	0	561	681	
4	0	0	0	0	557	682	
5	0	0	0	0	552	682	
6	0	0	0	0	550	681	
7	0	0	0	0	547	682	
8	0	0	0	0	547	682	
9	0	0	0	0	547	682	
10	0	0	0	0	546	682	
11	0	0	0	0	544	682	
12	0	0	0	0	544	682	
13	0	0	0	0	545	682	
14	0	0	0	0	546	682	
15	0	0	0	0	548	682	
0	0	0	0	0	551	682	
1	0	0	0	0	555	682	
2	0	0	0	0	556	682	
3	0	0	0	0	558	682	
4	0	0	0	0	557	682	
5	0	0	0	0	553	682	
6	0	0	0	0	550	682	
7	0	0	0	0	546	682	
8	0	0	0	0	542	682	
9	0	0	0	0	538	682	
10	0	0	0	0	536	682	
11	0	0	0	0	534	683	
12	0	0	0	0	534	682	
13	0	0	0	0	533	682	
14	0	0	0	0	533	683	
15	0	0	0	0	532	682	
0	0	0	0	0	532	683	
1	0	0	0	0	532	682	
2	0	0	0	0	533	682	
3	0	0	0	0	535	683	
4	0	0	0	0	538	683	
5	0	0	0	0	541	683	
6	0	0	0	0	543	683	
7	0	0	0	0	546	683	
8	0	0	0	0	545	683	
9	0	0	0	0	542	683	
10	0	0	0	0	537	683	
11	0	0	0	0	534	683	
12	0	0	0	0	530	683	
13	0	0	0	0	527	683	
14	0	0	0	0	524	683	
15	0	0	0	0	524	683	
0	0	0	0	0	523	683	
1	0	0	0	0	525	683	
2	0	0	0	0	524	683	
3	0	0	0	0	523	683	
4	0	0	0	0	523	683	
5	0	0	0	0	524	683	
6	0	0	0	0	525	683	
7	0	0	0	0	527	683	
8	0	0	0	0	529	683	
9	0	0	0	0	532	683	
10	0	0	0	0	535	683	
11	0	0	0	0	536	683	
12	0	0	0	0	534	684	
13	0	0	0	0	532	683	
14	0	0	0	0	528	683	
15	0	0	0	0	524	683	
0	0	0	0	0	519	684	
1	0	0	0	0	516	684	
2	0	0	0	0	513	684	
3	0	0	0	0	513	684	
4	0	0	0	0	513	684	
5	0	0	0	0	513	684	
6	0	0	0	0	512	684	
7	0	0	0	0	511	684	
8	0	0	0	0	511	684	
9	0	0	0	0	512	684	
10	0	0	0	0	513	684	
11	0	0	0	0	515	684	
12	0	0	0	0	517	684	
13	0	0	0	0	520	684	
14	0	0	0	0	523	684	
15	0	0	0	0	525	684	
0	0	0	0	0	524	684	
1	0	0	0	0	521	684	
2	0	0	0	0	517	684	
3	0	0	0	0	512	684	
4	0	0	0	0	508	684	
5	0	0	0	0	505	684	
6	0	0	0	0	502	684	
7	0	0	0	0	500	684	
8	0	0	0	0	499	684	
9	0	0	0	0	499	684	
10	0	0	0	0	497	684	
11	0	0	0	0	496	684	
12	0	0	0	0	496	684	
13	0	0	0	0	496	684	
14	0	0	0	0	497	684	
15	0	0	0	0	500	684	
0	0	0	0	0	503	684	
1	0	0	0	0	507	685	
2	0	0	0	0	509	684	
3	0	0	0	0	511	684	
4	0	0	0	0	511	685	
5	0	0	0	0	507	684	
6	0	0	0	0	502	685	
7	0	0	0	0	498	685	
8	0	0	0	0	494	685	
9	0	0	0	0	490	685	
10	0	0	0	0	488	685	
11	0	0	0	0	487	685	
12	0	0	0	0	485	685	
13	0	0	0	0	484	685	
14	0	0	0	0	483	685	
15	0	0	0	0	481	685	
0	0	0	0	0	480	685	
1	0	0	0	0	480	685	
2	0	0	0	0	482	685	
3	0	0	0	0	485	685	
4	0	0	0	0	487	685	
5	0	0	0	0	489	685	
6	0	0	0	0	491	685	
7	0	0	0	0	493	685	
8	0	0	0	0	492	685	
9	0	0	0	0	489	685	
10	0	0	0	0	485	686	
11	0	0	0	0	480	685	
12	0	0	0	0	477	685	
13	0	0	0	0	473	686	
14	0	0	0	0	470	686	
15	0	0	0	0	468	686	
0	0	0	0	0	467	686	
1	0	0	0	0	467	686	
2	0	0	0	0	466	686	
3	0	0	0	0	465	685	
4	0	0	0	0	465	686	
5	0	0	0	0	464	685	
6	0	0	0	0	466	686	
7	0	0	0	0	468	686	
8	0	0	0	0	470	686	
9	0	0	0	0	473	686	
10	0	0	0	0	476	686	
11	0	0	0	0	478	686	
12	0	0	0	0	477	686	
13	0	0	0	0	473	686	
14	0	0	0	0	468	686	
15	0	0	0	0	464	686	
0	0	0	0	0	460	686	
1	0	0	0	0	457	686	
2	0	0	0	0	455	686	
3	0	0	0	0	455	686	
4	0	0	0	0	455	686	
5	0	0	0	0	455	686	
6	0	0	0	0	455	686	
7	0	0	0	0	454	686	
8	0	0	0	0	454	686	
9	0	0	0	0	455	686	
10	0	0	0	0	456	686	
11	0	0	0	0	459	686	
12	0	0	0	0	463	686	
13	0	0	0	0	466	686	
14	0	0	0	0	469	686	
15	0	0	0	0	471	686	
0	0	0	0	0	471	686	
1	0	0	0	0	468	686	
2	0	0	0	0	465	686	
3	0	0	0	0	462	687	
4	0	0	0	0	459	686	
5	0	0	0	0	456	687	
6	0	0	0	0	455	686	
7	0	0	0	0	454	687	
8	0	0	0	0	455	687	
9	0	0	0	0	455	687	
10	0	0	0	0	455	687	
11	0	0	0	0	455	687	
12	0	0	0	0	457	687	
13	0	0	0	0	459	687	
14	0	0	0	0	462	687	
15	0	0	0	0	466	687	
0	0	0	0	0	471	687	
1	0	0	0	0	476	687	
2	0	0	0	0	480	687	
3	0	0	0	0	484	687	
4	0	0	0	0	485	687	
5	0	0	0	0	483	687	
6	0	0	0	0	481	687	
7	0	0	0	0	480	687	
8	0	0	0	0	478	687	
9	0	0	0	0	477	687	
10	0	0	0	0	477	687	
11	0	0	0	0	478	688	
12	0	0	0	0	480	687	
13	0	0	0	0	482	687	
14	0	0	0	0	483	687	
15	0	0	0	0	484	687	
0	0	0	0	0	486	687	
1	0	0	0	0	490	687	
2	0	0	0	0	494	687	
3	0	0	0	0	499	687	
4	0	0	0	0	503	687	
5	0	0	0	0	509	688	
6	0	0	0	0	513	688	
7	0	0	0	0	517	688	
8	0	0	0	0	517	688	
9	0	0	0	0	516	687	
10	0	0	0	0	514	688	
11	0	0	0	0	512	688	
12	0	0	0	0	510	688	
13	0	0	0	0	508	688	
14	0	0	0	0	507	688	
15	0	0	0	0	508	688	
0	0	0	0	0	509	688	
1	0	0	0	0	511	688	
2	0	0	0	0	512	688	
3	0	0	0	0	514	688	
4	0	0	0	0	515	688	
5	0	0	0	0	518	688	
6	0	0	0	0	521	688	
7	0	0	0	0	526	688	
8	0	0	0	0	530	688	
9	0	0	0	0	535	688	
10	0	0	0	0	539	688	
11	0	0	0	0	543	688	
12	0	0	0	0	543	688	
13	0	0	0	0	542	688	
14	0	0	0	0	540	688	
15	0	0	0	0	537	688	
0	0	0	0	0	534	688	
1	0	0	0	0	531	688	
2	0	0	0	0	530	688	
3	0	0	0	0	531	688	
4	0	0	0	0	532	689	
5	0	0	0	0	534	688	
6	0	0	0	0	535	688	
7	0	0	0	0	534	688	
8	0	0	0	0	534	688	
9	0	0	0	0	536	689	
10	0	0	0	0	539	688	
11	0	0	0	0	542	689	
12	0	0	0	0	545	688	
13	0	0	0	0	548	688	
14	0	0	0	0	552	689	
15	0	0	0	0	555	689	
0	0	0	0	0	555	689	
1	0	0	0	0	552	689	
2	0	0	0	0	549	689	
3	0	0	0	0	546	689	
4	0	0	0	0	542	689	
5	0	0	0	0	540	689	
6	0	0	0	0	537	689	
7	0	0	0	0	536	689	
8	0	0	0	0	537	689	
9	0	0	0	0	538	689	
10	0	0	0	0	538	689	
11	0	0	0	0	538	689	
12	0	0	0	0	537	689	
13	0	0	0	0	539	689	
14	0	0	0	0	540	689	
15	0	0	0	0	544	689	
0	0	0	0	0	547	689	
1	0	0	0	0	551	689	
2	0	0	0	0	555	689	
3	0	0	0	0	557	689	
4	0	0	0	0	556	689	
5	0	0	0	0	553	689	
6	0	0	0	0	549	689	
7	0	0	0	0	545	690	
8	0	0	0	0	542	690	
9	0	0	0	0	540	690	
10	0	0	0	0	537	690	
11	0	0	0	0	536	689	
12	0	0	0	0	536	690	
13	0	0	0	0	537	689	
14	0	0	0	0	537	690	
15	0	0	0	0	537	690	
0	0	0	0	0	537	690	
1	0	0	0	0	537	690	
2	0	0	0	0	539	690	
3	0	0	0	0	542	690	
4	0	0	0	0	544	690	
5	0	0	0	0	547	690	
6	0	0	0	0	550	690	
7	0	0	0	0	552	690	
8	0	0	0	0	551	690	
9	0	0	0	0	548	690	
10	0	0	0	0	544	690	
11	0	0	0	0	540	690	
12	0	0	0	0	536	690	
13	0	0	0	0	534	691	
14	0	0	0	0	531	691	
15	0	0	0	0	530	691	
0	0	0	0	0	531	691	
1	0	0	0	0	531	691	
2	0	0	0	0	531	691	
3	0	0	0	0	530	690	
4	0	0	0	0	530	691	
5	0	0	0	0	531	691	
6	0	0	0	0	532	691	
7	0	0	0	0	535	691	
8	0	0	0	0	538	691	
9	0	0	0	0	542	691	
10	0	0	0	0	544	691	
11	0	0	0	0	544	691	
12	0	0	0	0	542	691	
13	0	0	0	0	538	691	
14	0	0	0	0	534	691	
15	0	0	0	0	528	691	
0	0	0	0	0	524	691	
1	0	0	0	0	521	691	
2	0	0	0	0	518	691	
3	0	0	0	0	517	691	
4	0	0	0	0	517	691	
5	0	0	0	0	519	691	
6	0	0	0	0	519	691	
7	0	0	0	0	518	691	
8	0	0	0	0	519	692	
9	0	0	0	0	519	691	
10	0	0	0	0	522	691	
11	0	0	0	0	526	691	
12	0	0	0	0	529	691	
13	0	0	0	0	533	691	
14	0	0	0	0	536	691	
15	0	0	0	0	537	692	
0	0	0	0	0	536	692	
1	0	0	0	0	534	692	
2	0	0	0	0	530	692	
3	0	0	0	0	526	692	
4	0	0	0	0	521	692	
5	0	0	0	0	519	692	
6	0	0	0	0	517	692	
7	0	0	0	0	515	692	
8	0	0	0	0	514	692	
9	0	0	0	0	515	692	
10	0	0	0	0	515	692	
11	0	0	0	0	515	692	
12	0	0	0	0	515	692	
13	0	0	0	0	515	692	
14	0	0	0	0	516	692	
15	0	0	0	0	519	692	
0	0	0	0	0	522	692	
1	0	0	0	0	525	692	
2	0	0	0	0	528	692	
3	0	0	0	0	529	692	
4	0	0	0	0	527	692	
5	0	0	0	0	524	692	
6	0	0	0	0	520	692	
7	0	0	0	0	516	693	
8	0	0	0	0	512	692	
9	0	0	0	0	510	693	
10	0	0	0	0	508	692	
11	0	0	0	0	508	693	
12	0	0	0	0	508	692	
13	0	0	0	0	508	693	
14	0	0	0	0	508	693	
15	0	0	0	0	508	692	
0	0	0	0	0	508	693	
1	0	0	0	0	509	693	
2	0	0	0	0	511	693	
3	0	0	0	0	515	693	
4	0	0	0	0	519	693	
5	0	0	0	0	522	693	
6	0	0	0	0	525	693	
7	0	0	0	0	527	693	
8	0	0	0	0	527	693	
9	0	0	0	0	524	693	
10	0	0	0	0	519	693	
11	0	0	0	0	515	693	
12	0	0	0	0	512	693	
13	0	0	0	0	509	693	
14	0	0	0	0	508	693	
15	0	0	0	0	507	694	
0	0	0	0	0	507	694	
1	0	0	0	0	507	694	
2	0	0	0	0	508	693	
3	0	0	0	0	507	693	
4	0	0	0	0	508	694	
5	0	0	0	0	508	694	
6	0	0	0	0	510	694	
7	0	0	0	0	513	693	
8	0	0	0	0	516	694	
9	0	0	0	0	519	694	
10	0	0	0	0	522	694	
11	0	0	0	0	524	694	
12	0	0	0	0	524	694	
13	0	0	0	0	521	694	
14	0	0	0	0	517	694	
15	0	0	0	0	513	694	
0	0	0	0	0	510	694	
1	0	0	0	0	507	694	
2	0	0	0	0	505	694	
3	0	0	0	0	504	694	
4	0	0	0	0	505	694	
5	0	0	0	0	506	694	
6	0	0	0	0	506	694	
7	0	0	0	0	505	694	
8	0	0	0	0	505	694	
9	0	0	0	0	507	694	
10	0	0	0	0	508	694	
11	0	0	0	0	511	694	
12	0	0	0	0	515	694	
13	0	0	0	0	519	694	
14	0	0	0	0	522	695	
15	0	0	0	0	524	695	
0	0	0	0	0	523	695	
1	0	0	0	0	521	695	
2	0	0	0	0	517	695	
3	0	0	0	0	513	695	
4	0	0	0	0	510	695	
5	0	0	0	0	507	695	
6	0	0	0	0	505	695	
7	0	0	0	0	506	695	
8	0	0	0	0	507	695	
9	0	0	0	0	509	695	
10	0	0	0	0	509	695	
11	0	0	0	0	508	695	
12	0	0	0	0	508	695	
13	0	0	0	0	509	695	
14	0	0	0	0	511	695	
15	0	0	0	0	514	695	
0	0	0	0	0	517	695	
1	0	0	0	0	521	695	
2	0	0	0	0	524	695	
3	0	0	0	0	526	695	
4	0	0	0	0	525	695	
5	0	0	0	0	522	695	
6	0	0	0	0	518	695	
7	0	0	0	0	514	695	
8	0	0	0	0	510	696	
9	0	0	0	0	507	696	
10	0	0	0	0	504	695	
11	0	0	0	0	504	696	
12	0	0	0	0	504	696	
13	0	0	0	0	504	695	
14	0	0	0	0	505	696	
15	0	0	0	0	504	696	
0	0	0	0	0	505	696	
1	0	0	0	0	506	696	
2	0	0	0	0	508	696	
3	0	0	0	0	512	696	
4	0	0	0	0	517	696	
5	0	0	0	0	522	696	
6	0	0	0	0	525	696	
7	0	0	0	0	527	696	
8	0	0	0	0	526	696	
9	0	0	0	0	524	696	
10	0	0	0	0	520	696	
11	0	0	0	0	516	696	
12	0	0	0	0	513	696	
13	0	0	0	0	510	696	
14	0	0	0	0	508	696	
15	0	0	0	0	507	696	
0	0	0	0	0	507	696	
1	0	0	0	0	507	696	
2	0	0	0	0	507	696	
3	0	0	0	0	507	696	
4	0	0	0	0	508	696	
5	0	0	0	0	509	696	
6	0	0	0	0	511	696	
7	0	0	0	0	514	696	
8	0	0	0	0	518	696	
9	0	0	0	0	521	696	
10	0	0	0	0	525	697	
11	0	0	0	0	527	696	
12	0	0	0	0	526	697	
13	0	0	0	0	523	697	
14	0	0	0	0	519	697	
15	0	0	0	0	515	697	
0	0	0	0	0	511	697	
1	0	0	0	0	508	697	
2	0	0	0	0	505	697	
3	0	0	0	0	505	697	
4	0	0	0	0	505	697	
5	0	0	0	0	504	697	
6	0	0	0	0	504	697	
7	0	0	0	0	503	697	
8	0	0	0	0	503	697	
9	0	0	0	0	505	697	
10	0	0	0	0	507	697	
11	0	0	0	0	510	697	
12	0	0	0	0	513	697	
13	0	0	0	0	516	697	
14	0	0	0	0	519	697	
15	0	0	0	0	521	697	
0	0	0	0	0	520	697	
1	0	0	0	0	518	697	
2	0	0	0	0	514	697	
3	0	0	0	0	512	697	
4	0	0	0	0	510	697	
5	0	0	0	0	508	697	
6	0	0	0	0	506	697	
7	0	0	0	0	506	698	
8	0	0	0	0	506	697	
9	0	0	0	0	506	698	
10	0	0	0	0	505	698	
11	0	0	0	0	504	697	
12	0	0	0	0	505	698	
13	0	0	0	0	507	698	
14	0	0	0	0	509	698	
15	0	0	0	0	512	698	
0	0	0	0	0	516	698	
1	0	0	0	0	519	698	
2	0	0	0	0	522	698	
3	0	0	0	0	524	698	
4	0	0	0	0	523	698	
5	0	0	0	0	520	698	
6	0	0	0	0	516	698	
7	0	0	0	0	512	699	
8	0	0	0	0	508	698	
9	0	0	0	0	505	698	
10	0	0	0	0	504	699	
11	0	0	0	0	503	699	
12	0	0	0	0	502	698	
13	0	0	0	0	502	699	
14	0	0	0	0	502	699	
15	0	0	0	0	501	698	
0	0	0	0	0	502	699	
1	0	0	0	0	504	699	
2	0	0	0	0	506	699	
3	0	0	0	0	508	698	
4	0	0	0	0	512	698	
5	0	0	0	0	515	699	
6	0	0	0	0	519	699	
7	0	0	0	0	521	699	
8	0	0	0	0	520	699	
9	0	0	0	0	518	699	
10	0	0	0	0	513	699	
11	0	0	0	0	509	699	
12	0	0	0	0	505	699	
13	0	0	0	0	503	699	
14	0	0	0	0	500	699	
15	0	0	0	0	499	699	
0	0	0	0	0	499	699	
1	0	0	0	0	499	699	
2	0	0	0	0	499	699	
3	0	0	0	0	499	699	
4	0	0	0	0	500	699	
5	0	0	0	0	501	699	
6	0	0	0	0	503	699	
7	0	0	0	0	505	699	
8	0	0	0	0	509	699	
9	0	0	0	0	513	699	
10	0	0	0	0	517	700	
11	0	0	0	0	520	700	
12	0	0	0	0	519	700	
13	0	0	0	0	517	699	
14	0	0	0	0	514	700	
15	0	0	0	0	511	700	
0	0	0	0	0	508	700	
1	0	0	0	0	505	700	
2	0	0	0	0	503	700	
3	0	0	0	0	502	700	
4	0	0	0	0	502	700	
5	0	0	0	0	501	700	
6	0	0	0	0	501	700	
7	0	0	0	0	500	700	
8	0	0	0	0	500	700	
9	0	0	0	0	501	700	
10	0	0	0	0	503	700	
11	0	0	0	0	505	700	
12	0	0	0	0	508	700	
13	0	0	0	0	512	700	
14	0	0	0	0	514	700	
15	0	0	0	0	516	700	
0	0	0	0	0	515	700	
1	0	0	0	0	513	700	
2	0	0	0	0	510	700	
3	0	0	0	0	506	700	
4	0	0	0	0	503	700	
5	0	0	0	0	500	700	
6	0	0	0	0	499	700	
7	0	0	0	0	499	700	
8	0	0	0	0	499	700	
9	0	0	0	0	499	700	
10	0	0	0	0	499	700	
11	0	0	0	0	498	700	
12	0	0	0	0	499	700	
13	0	0	0	0	500	700	
14	0	0	0	0	503	700	
15	0	0	0	0	507	700	
0	0	0	0	0	510	700	
1	0	0	0	0	513	700	
2	0	0	0	0	516	701	
3	0	0	0	0	519	701	
4	0	0	0	0	518	701	
5	0	0	0	0	515	700	
6	0	0	0	0	512	701	
7	0	0	0	0	508	701	
8	0	0	0	0	505	701	
9	0	0	0	0	502	701	
10	0	0	0	0	500	701	
11	0	0	0	0	499	701	
12	0	0	0	0	499	701	
13	0	0	0	0	499	701	
14	0	0	0	0	499	701	
15	0	0	0	0	498	701	
0	0	0	0	0	498	701	
1	0	0	0	0	498	701	
2	0	0	0	0	501	701	
3	0	0	0	0	504	701	
4	0	0	0	0	507	701	
5	0	0	0	0	512	701	
6	0	0	0	0	515	701	
7	0	0	0	0	517	701	
8	0	0	0	0	516	702	
9	0	0	0	0	513	702	
10	0	0	0	0	511	701	
11	0	0	0	0	508	701	
12	0	0	0	0	505	702	
13	0	0	0	0	503	702	
14	0	0	0	0	502	702	
15	0	0	0	0	502	702	
0	0	0	0	0	502	702	
1	0	0	0	0	503	702	
2	0	0	0	0	502	702	
3	0	0	0	0	502	702	
4	0	0	0	0	502	702	
5	0	0	0	0	504	702	
6	0	0	0	0	505	702	
7	0	0	0	0	508	702	
8	0	0	0	0	511	702	
9	0	0	0	0	514	702	
10	0	0	0	0	517	702	
11	0	0	0	0	519	702	
12	0	0	0	0	517	702	
13	0	0	0	0	514	702	
14	0	0	0	0	510	702	
15	0	0	0	0	505	702	
0	0	0	0	0	500	702	
1	0	0	0	0	496	702	
2	0	0	0	0	493	702	
3	0	0	0	0	491	702	
4	0	0	0	0	490	702	
5	0	0	0	0	488	702	
6	0	0	0	0	486	702	
7	0	0	0	0	484	702	
8	0	0	0	0	483	703	
9	0	0	0	0	484	702	
10	0	0	0	0	487	702	
11	0	0	0	0	490	703	
12	0	0	0	0	493	702	
13	0	0	0	0	496	703	
14	0	0	0	0	499	703	
15	0	0	0	0	499	703	
0	0	0	0	0	499	703	
1	0	0	0	0	496	702	
2	0	0	0	0	491	703	
3	0	0	0	0	487	703	
4	0	0	0	0	482	703	
5	0	0	0	0	478	703	
6	0	0	0	0	476	703	
7	0	0	0	0	476	703	
8	0	0	0	0	476	703	
9	0	0	0	0	477	703	
10	0	0	0	0	477	703	
11	0	0	0	0	477	703	
12	0	0	0	0	477	703	
13	0	0	0	0	477	703	
14	0	0	0	0	478	703	
15	0	0	0	0	480	703	
0	0	0	0	0	484	703	
1	0	0	0	0	489	703	
2	0	0	0	0	494	703	
3	0	0	0	0	498	703	
4	0	0	0	0	498	703	
5	0	0	0	0	497	703	
6	0	0	0	0	495	703	
7	0	0	0	0	491	703	
8	0	0	0	0	488	703	
9	0	0	0	0	486	703	
10	0	0	0	0	486	703	
11	0	0	0	0	486	704	
12	0	0	0	0	487	704	
13	0	0	0	0	490	704	
14	0	0	0	0	492	704	
15	0	0	0	0	493	703	
0	0	0	0	0	494	703	
1	0	0	0	0	496	704	
2	0	0	0	0	498	704	
3	0	0	0	0	501	704	
4	0	0	0	0	504	703	
5	0	0	0	0	509	704	
6	0	0	0	0	513	704	
7	0	0	0	0	516	704	
8	0	0	0	0	516	704	
9	0	0	0	0	514	704	
10	0	0	0	0	512	704	
11	0	0	0	0	510	704	
12	0	0	0	0	509	704	
13	0	0	0	0	509	704	
14	0	0	0	0	508	704	
15	0	0	0	0	509	704	
0	0	0	0	0	511	704	
1	0	0	0	0	513	704	
2	0	0	0	0	514	704	
3	0	0	0	0	514	704	
4	0	0	0	0	515	704	
5	0	0	0	0	518	704	
6	0	0	0	0	520	704	
7	0	0	0	0	524	704	
8	0	0	0	0	527	704	
9	0	0	0	0	531	704	
10	0	0	0	0	534	704	
11	0	0	0	0	536	704	
12	0	0	0	0	535	705	
13	0	0	0	0	532	704	
14	0	0	0	0	528	704	
15	0	0	0	0	525	704	
0	0	0	0	0	521	704	
1	0	0	0	0	520	704	
2	0	0	0	0	518	705	
3	0	0	0	0	518	704	
4	0	0	0	0	517	705	
5	0	0	0	0	518	704	
6	0	0	0	0	517	705	
7	0	0	0	0	516	705	
8	0	0	0	0	516	705	
9	0	0	0	0	518	705	
10	0	0	0	0	520	705	
11	0	0	0	0	524	704	
12	0	0	0	0	527	704	
13	0	0	0	0	530	705	
14	0	0	0	0	532	705	
15	0	0	0	0	533	705	
0	0	0	0	0	531	705	
1	0	0	0	0	528	705	
2	0	0	0	0	524	705	
3	0	0	0	0	520	705	
4	0	0	0	0	516	705	
5	0	0	0	0	514	705	
6	0	0	0	0	512	705	
7	0	0	0	0	511	705	
8	0	0	0	0	510	705	
9	0	0	0	0	510	705	
10	0	0	0	0	510	705	
11	0	0	0	0	509	705	
12	0	0	0	0	509	705	
13	0	0	0	0	511	705	
14	0	0	0	0	513	705	
15	0	0	0	0	516	705	
0	0	0	0	0	520	705	
1	0	0	0	0	524	705	
2	0	0	0	0	527	705	
3	0	0	0	0	528	705	
4	0	0	0	0	527	706	
5	0	0	0	0	524	705	
6	0	0	0	0	520	706	
7	0	0	0	0	516	706	
8	0	0	0	0	513	705	
9	0	0	0	0	511	706	
10	0	0	0	0	508	706	
11	0	0	0	0	507	706	
12	0	0	0	0	507	706	
13	0	0	0	0	507	706	
14	0	0	0	0	506	706	
15	0	0	0	0	505	706	
0	0	0	0	0	505	706	
1	0	0	0	0	506	706	
2	0	0	0	0	508	706	
3	0	0	0	0	511	706	
4	0	0	0	0	513	706	
5	0	0	0	0	516	706	
6	0	0	0	0	519	706	
7	0	0	0	0	521	706	
8	0	0	0	0	520	706	
9	0	0	0	0	518	706	
10	0	0	0	0	515	706	
11	0	0	0	0	512	706	
12	0	0	0	0	510	706	
13	0	0	0	0	508	706	
14	0	0	0	0	508	706	
15	0	0	0	0	511	707	
0	0	0	0	0	513	707	
1	0	0	0	0	515	707	
2	0	0	0	0	513	706	
3	0	0	0	0	510	707	
4	0	0	0	0	505	706	
5	0	0	0	0	499	706	
6	0	0	0	0	495	706	
7	0	0	0	0	491	707	
8	0	0	0	0	486	706	
9	0	0	0	0	479	707	
10	0	0	0	0	470	707	
11	0	0	0	0	458	707	
12	0	0	0	0	442	707	
13	0	0	0	0	424	707	
14	0	0	0	0	405	707	
15	0	0	0	0	385	707	
0	0	0	0	0	364	707	
1	0	0	0	0	343	707	
2	0	0	0	0	322	707	
3	0	0	0	0	297	707	
4	0	0	0	0	271	707	
5	0	0	0	0	241	707	
6	0	0	0	0	205	707	
7	0	0	0	0	164	707	
8	0	0	0	0	121	707	
9	0	0	0	0	76	707	
10	0	0	0	0	30	707	
11	0	0	0	0	0	707	
12	0	0	0	0	0	707	
13	0	0	0	0	0	707	
14	0	0	0	0	0	707	
15	0	0	0	0	0	707	
0	0	0	0	0	0	707	
1	0	0	0	0	0	707	
2	0	0	0	0	0	707	
3	0	0	0	0	0	707	
4	0	0	0	0	0	707	
5	0	0	0	0	0	707	
6	0	0	0	0	0	707	
7	0	0	0	0	49	707	
8	0	0	0	0	116	707	
9	0	0	0	0	193	707	
10	0	0	0	0	281	707	
11	0	0	0	0	374	707	
12	0	0	0	0	467	707	
13	0	0	0	0	557	707	
14	0	0	0	0	639	707	
15	0	0	0	0	707	707	
0	0	0	0	0	760	707	
1	0	0	0	0	801	707	
2	0	0	0	0	830	707	
3	0	0	0	0	849	707	
4	0	0	0	0	861	707	
5	0	0	0	0	866	707	
6	0	0	0	0	866	707	
7	0	0	0	0	860	708	
8	0	0	0	0	850	707	
9	0	0	0	0	838	708	
10	0	0	0	0	824	708	
11	0	0	0	0	812	708	
12	0	0	0	0	800	707	
13	0	0	0	0	787	708	
14	0	0	0	0	773	708	
15	0	0	0	0	759	707	
0	0	0	0	0	745	708	
1	0	0	0	0	732	708	
2	0	0	0	0	720	708	
3	0	0	0	0	711	708	
4	0	0	0	0	703	708	
5	0	0	0	0	696	708	
6	0	0	0	0	688	708	
7	0	0	0	0	679	708	
8	0	0	0	0	668	708	
9	0	0	0	0	656	708	
10	0	0	0	0	643	708	
11	0	0	0	0	631	708	
12	0	0	0	0	622	708	
13	0	0	0	0	613	708	
14	0	0	0	0	608	708	
15	0	0	0	0	604	708	
0	0	0	0	0	602	708	
1	0	0	0	0	600	708	
2	0	0	0	0	599	708	
3	0	0	0	0	596	708	
4	0	0	0	0	595	708	
5	0	0	0	0	595	708	
6	0	0	0	0	596	708	
7	0	0	0	0	597	708	
8	0	0	0	0	599	708	
9	0	0	0	0	601	709	
10	0	0	0	0	602	709	
11	0	0	0	0	602	708	
12	0	0	0	0	600	709	
13	0	0	0	0	596	709	
14	0	0	0	0	591	709	
15	0	0	0	0	587	709	
0	0	0	0	0	583	709	
1	0	0	0	0	579	709	
2	0	0	0	0	576	709	
3	0	0	0	0	575	709	
4	0	0	0	0	574	709	
5	0	0	0	0	573	709	
6	0	0	0	0	571	709	
7	0	0	0	0	570	709	
8	0	0	0	0	569	709	
9	0	0	0	0	569	709	
10	0	0	0	0	571	709	
11	0	0	0	0	574	709	
12	0	0	0	0	575	709	
13	0	0	0	0	579	709	
14	0	0	0	0	580	709	
15	0	0	0	0	581	709	
0	0	0	0	0	578	709	
1	0	0	0	0	575	710	
2	0	0	0	0	570	709	
3	0	0	0	0	564	710	
4	0	0	0	0	560	709	
5	0	0	0	0	557	710	
6	0	0	0	0	555	710	
7	0	0	0	0	553	710	
8	0	0	0	0	553	710	
9	0	0	0	0	552	709	
10	0	0	0	0	552	710	
11	0	0	0	0	551	710	
12	0	0	0	0	551	710	
13	0	0	0	0	551	709	
14	0	0	0	0	552	710	
15	0	0	0	0	555	709	
0	0	0	0	0	557	710	
1	0	0	0	0	560	710	
2	0	0	0	0	561	710	
3	0	0	0	0	562	710	
4	0	0	0	0	560	710	
5	0	0	0	0	558	710	
6	0	0	0	0	554	710	
7	0	0	0	0	550	710	
8	0	0	0	0	546	710	
9	0	0	0	0	543	710	
10	0	0	0	0	541	710	
11	0	0	0	0	540	710	
12	0	0	0	0	540	710	
13	0	0	0	0	539	710	
14	0	0	0	0	537	710	
15	0	0	0	0	536	710	
0	0	0	0	0	536	710	
1	0	0	0	0	536	710	
2	0	0	0	0	537	710	
3	0	0	0	0	539	710	
4	0	0	0	0	541	710	
5	0	0	0	0	544	711	
6	0	0	0	0	546	710	
7	0	0	0	0	547	710	
8	0	0	0	0	545	710	
9	0	0	0	0	542	710	
10	0	0	0	0	539	710	
11	0	0	0	0	534	711	
12	0	0	0	0	531	711	
13	0	0	0	0	528	711	
14	0	0	0	0	527	710	
15	0	0	0	0	526	710	
0	0	0	0	0	527	711	
1	0	0	0	0	528	711	
2	0	0	0	0	527	711	
3	0	0	0	0	527	711	
4	0	0	0	0	527	711	
5	0	0	0	0	528	710	
6	0	0	0	0	530	711	
7	0	0	0	0	533	711	
8	0	0	0	0	536	711	
9	0	0	0	0	539	711	
10	0	0	0	0	542	711	
11	0	0	0	0	543	711	
12	0	0	0	0	541	711	
13	0	0	0	0	537	711	
14	0	0	0	0	533	711	
15	0	0	0	0	529	711	
0	0	0	0	0	525	711	
1	0	0	0	0	522	711	
2	0	0	0	0	520	711	
3	0	0	0	0	519	711	
4	0	0	0	0	519	711	
5	0	0	0	0	519	711	
6	0	0	0	0	519	711	
7	0	0	0	0	518	711	
8	0	0	0	0	517	711	
9	0	0	0	0	518	711	
10	0	0	0	0	519	711	
11	0	0	0	0	521	711	
12	0	0	0	0	524	711	
13	0	0	0	0	527	711	
14	0	0	0	0	530	711	
15	0	0	0	0	531	711	
0	0	0	0	0	528	711	
1	0	0	0	0	525	711	
2	0	0	0	0	521	711	
3	0	0	0	0	517	711	
4	0	0	0	0	513	711	
5	0	0	0	0	510	711	
6	0	0	0	0	508	711	
7	0	0	0	0	507	711	
8	0	0	0	0	506	711	
9	0	0	0	0	505	711	
10	0	0	0	0	505	711	
11	0	0	0	0	504	711	
12	0	0	0	0	504	711	
13	0	0	0	0	504	711	
14	0	0	0	0	506	711	
15	0	0	0	0	508	711	
0	0	0	0	0	511	711	
1	0	0	0	0	513	711	
2	0	0	0	0	516	711	
3	0	0	0	0	516	711	
4	0	0	0	0	515	711	
5	0	0	0	0	512	711	
6	0	0	0	0	508	712	
7	0	0	0	0	503	712	
8	0	0	0	0	499	711	
9	0	0	0	0	496	712	
10	0	0	0	0	494	712	
11	0	0	0	0	493	712	
12	0	0	0	0	493	712	
13	0	0	0	0	493	712	
14	0	0	0	0	492	712	
15	0	0	0	0	491	711	
0	0	0	0	0	491	712	
1	0	0	0	0	492	712	
2	0	0	0	0	494	712	
3	0	0	0	0	497	712	
4	0	0	0	0	500	712	
5	0	0	0	0	503	712	
6	0	0	0	0	505	712	
7	0	0	0	0	507	712	
8	0	0	0	0	504	712	
9	0	0	0	0	500	712	
10	0	0	0	0	496	712	
11	0	0	0	0	491	712	
12	0	0	0	0	487	712	
13	0	0	0	0	483	712	
14	0	0	0	0	481	712	
15	0	0	0	0	480	712	
0	0	0	0	0	480	712	
1	0	0	0	0	481	712	
2	0	0	0	0	480	712	
3	0	0	0	0	479	712	
4	0	0	0	0	479	712	
5	0	0	0	0	478	712	
6	0	0	0	0	480	712	
7	0	0	0	0	481	712	
8	0	0	0	0	483	712	
9	0	0	0	0	486	712	
10	0	0	0	0	487	712	
11	0	0	0	0	488	712	
12	0	0	0	0	486	712	
13	0	0	0	0	483	712	
14	0	0	0	0	479	712	
15	0	0	0	0	475	712	
0	0	0	0	0	471	712	
1	0	0	0	0	468	712	
2	0	0	0	0	465	712	
3	0	0	0	0	464	713	
4	0	0	0	0	465	713	
5	0	0	0	0	465	712	
6	0	0	0	0	464	712	
7	0	0	0	0	463	712	
8	0	0	0	0	463	712	
9	0	0	0	0	463	712	
10	0	0	0	0	464	713	
11	0	0	0	0	467	713	
12	0	0	0	0	470	712	
13	0	0	0	0	473	713	
14	0	0	0	0	476	713	
15	0	0	0	0	476	713	
0	0	0	0	0	474	713	
1	0	0	0	0	471	712	
2	0	0	0	0	467	713	
3	0	0	0	0	463	713	
4	0	0	0	0	460	713	
5	0	0	0	0	457	713	
6	0	0	0	0	455	713	
7	0	0	0	0	455	713	
8	0	0	0	0	455	713	
9	0	0	0	0	455	713	
10	0	0	0	0	455	713	
11	0	0	0	0	455	713	
12	0	0	0	0	457	713	
13	0	0	0	0	459	713	
14	0	0	0	0	461	713	
15	0	0	0	0	464	713	
0	0	0	0	0	467	713	
1	0	0	0	0	472	713	
2	0	0	0	0	476	713	
3	0	0	0	0	478	713	
4	0	0	0	0	478	713	
5	0	0	0	0	476	713	
6	0	0	0	0	474	713	
7	0	0	0	0	471	713	
8	0	0	0	0	469	713	
9	0	0	0	0	468	713	
10	0	0	0	0	468	713	
11	0	0	0	0	469	713	
12	0	0	0	0	470	713	
13	0	0	0	0	472	713	
14	0	0	0	0	473	713	
15	0	0	0	0	473	713	
0	0	0	0	0	475	713	
1	0	0	0	0	477	713	
2	0	0	0	0	480	713	
3	0	0	0	0	484	713	
4	0	0	0	0	488	713	
5	0	0	0	0	494	713	
6	0	0	0	0	498	713	
7	0	0	0	0	501	713	
8	0	0	0	0	502	713	
9	0	0	0	0	500	713	
10	0	0	0	0	499	713	
11	0	0	0	0	497	713	
12	0	0	0	0	495	714	
13	0	0	0	0	495	714	
14	0	0	0	0	496	713	
15	0	0	0	0	498	714	
0	0	0	0	0	500	714	
1	0	0	0	0	503	713	
2	0	0	0	0	503	714	
3	0	0	0	0	504	713	
4	0	0	0	0	506	714	
5	0	0	0	0	509	713	
6	0	0	0	0	512	713	
7	0	0	0	0	516	713	
8	0	0	0	0	519	713	
9	0	0	0	0	525	714	
10	0	0	0	0	529	714	
11	0	0	0	0	532	714	
12	0	0	0	0	532	714	
13	0	0	0	0	530	713	
14	0	0	0	0	527	714	
15	0	0	0	0	526	714	
0	0	0	0	0	524	714	
1	0	0	0	0	523	714	
2	0	0	0	0	523	714	
3	0	0	0	0	524	714	
4	0	0	0	0	526	714	
5	0	0	0	0	527	714	
6	0	0	0	0	527	714	
7	0	0	0	0	528	714	
8	0	0	0	0	529	714	
9	0	0	0	0	531	714	
10	0	0	0	0	534	714	
11	0	0	0	0	539	714	
12	0	0	0	0	543	714	
13	0	0	0	0	547	714	
14	0	0	0	0	551	714	
15	0	0	0	0	552	714	
0	0	0	0	0	551	714	
1	0	0	0	0	548	714	
2	0	0	0	0	545	714	
3	0	0	0	0	542	714	
4	0	0	0	0	539	714	
5	0	0	0	0	536	714	
6	0	0	0	0	535	714	
7	0	0	0	0	535	715	
8	0	0	0	0	536	715	
9	0	0	0	0	536	715	
10	0	0	0	0	535	714	
11	0	0	0	0	535	715	
12	0	0	0	0	536	714	
13	0	0	0	0	537	714	
14	0	0	0	0	540	715	
15	0	0	0	0	545	715	
0	0	0	0	0	549	714	
1	0	0	0	0	553	715	
2	0	0	0	0	556	715	
3	0	0	0	0	557	715	
4	0	0	0	0	555	715	
5	0	0	0	0	552	715	
6	0	0	0	0	548	715	
7	0	0	0	0	544	715	
8	0	0	0	0	541	715	
9	0	0	0	0	538	715	
10	0	0	0	0	536	715	
11	0	0	0	0	536	715	
12	0	0	0	0	536	715	
13	0	0	0	0	535	715	
14	0	0	0	0	535	715	
15	0	0	0	0	534	715	
0	0	0	0	0	535	715	
1	0	0	0	0	536	715	
2	0	0	0	0	537	715	
3	0	0	0	0	540	715	
4	0	0	0	0	543	715	
5	0	0	0	0	547	715	
6	0	0	0	0	549	715	
7	0	0	0	0	551	715	
8	0	0	0	0	549	715	
9	0	0	0	0	545	715	
10	0	0	0	0	541	715	
11	0	0	0	0	537	715	
12	0	0	0	0	534	715	
13	0	0	0	0	531	715	
14	0	0	0	0	530	715	
15	0	0	0	0	529	716	
0	0	0	0	0	529	715	
1	0	0	0	0	529	716	
2	0	0	0	0	528	716	
3	0	0	0	0	528	715	
4	0	0	0	0	529	715	
5	0	0	0	0	530	715	
6	0	0	0	0	531	715	
7	0	0	0	0	535	715	
8	0	0	0	0	538	716	
9	0	0	0	0	541	716	
10	0	0	0	0	543	715	
11	0	0	0	0	543	716	
12	0	0	0	0	542	716	
13	0	0	0	0	539	715	
14	0	0	0	0	535	716	
15	0	0	0	0	531	716	
0	0	0	0	0	527	716	
1	0	0	0	0	526	716	
2	0	0	0	0	524	716	
3	0	0	0	0	524	716	
4	0	0	0	0	524	716	
5	0	0	0	0	524	716	
6	0	0	0	0	523	716	
7	0	0	0	0	521	716	
8	0	0	0	0	521	716	
9	0	0	0	0	523	716	
10	0	0	0	0	525	716	
11	0	0	0	0	528	716	
12	0	0	0	0	531	716	
13	0	0	0	0	534	716	
14	0	0	0	0	537	716	
15	0	0	0	0	538	716	
0	0	0	0	0	536	716	
1	0	0	0	0	534	716	
2	0	0	0	0	531	716	
3	0	0	0	0	527	716	
4	0	0	0	0	524	716	
5	0	0	0	0	521	716	
6	0	0	0	0	519	716	
7	0	0	0	0	519	716	
8	0	0	0	0	520	716	
9	0	0	0	0	520	716	
10	0	0	0	0	519	716	
11	0	0	0	0	519	716	
12	0	0	0	0	520	716	
13	0	0	0	0	521	716	
14	0	0	0	0	523	716	
15	0	0	0	0	526	716	
0	0	0	0	0	529	716	
1	0	0	0	0	533	716	
2	0	0	0	0	536	716	
3	0	0	0	0	537	716	
4	0	0	0	0	536	716	
5	0	0	0	0	532	716	
6	0	0	0	0	529	716	
7	0	0	0	0	525	716	
8	0	0	0	0	522	716	
9	0	0	0	0	519	716	
10	0	0	0	0	518	716	
11	0	0	0	0	517	717	
12	0	0	0	0	516	716	
13	0	0	0	0	516	716	
14	0	0	0	0	515	716	
15	0	0	0	0	515	716	
0	0	0	0	0	515	716	
1	0	0	0	0	516	716	
2	0	0	0	0	518	716	
3	0	0	0	0	520	717	
4	0	0	0	0	523	716	
5	0	0	0	0	527	716	
6	0	0	0	0	529	717	
7	0	0	0	0	530	716	
8	0	0	0	0	529	717	
9	0	0	0	0	526	716	
10	0	0	0	0	523	717	
11	0	0	0	0	519	717	
12	0	0	0	0	516	716	
13	0	0	0	0	514	717	
14	0	0	0	0	512	716	
15	0	0	0	0	513	717	
0	0	0	0	0	513	717	
1	0	0	0	0	513	717	
2	0	0	0	0	513	717	
3	0	0	0	0	512	717	
4	0	0	0	0	513	717	
5	0	0	0	0	513	717	
6	0	0	0	0	516	717	
7	0	0	0	0	519	717	
8	0	0	0	0	524	716	
9	0	0	0	0	528	716	
10	0	0	0	0	531	717	
11	0	0	0	0	531	717	
12	0	0	0	0	530	717	
13	0	0	0	0	527	717	
14	0	0	0	0	523	717	
15	0	0	0	0	519	717	
0	0	0	0	0	516	717	
1	0	0	0	0	514	717	
2	0	0	0	0	513	717	
3	0	0	0	0	512	717	
4	0	0	0	0	514	717	
5	0	0	0	0	514	717	
6	0	0	0	0	513	717	
7	0	0	0	0	513	717	
8	0	0	0	0	513	717	
9	0	0	0	0	514	717	
10	0	0	0	0	517	717	
11	0	0	0	0	520	717	
12	0	0	0	0	524	717	
13	0	0	0	0	527	718	
14	0	0	0	0	530	717	
15	0	0	0	0	531	717	
0	0	0	0	0	529	717	
1	0	0	0	0	526	717	
2	0	0	0	0	521	717	
3	0	0	0	0	517	717	
4	0	0	0	0	513	717	
5	0	0	0	0	511	717	
6	0	0	0	0	509	717	
7	0	0	0	0	509	717	
8	0	0	0	0	510	717	
9	0	0	0	0	510	717	
10	0	0	0	0	511	717	
11	0	0	0	0	511	717	
12	0	0	0	0	512	717	
13	0	0	0	0	513	717	
14	0	0	0	0	515	717	
15	0	0	0	0	519	717	
0	0	0	0	0	522	717	
1	0	0	0	0	525	717	
2	0	0	0	0	528	718	
3	0	0	0	0	529	718	
4	0	0	0	0	527	718	
5	0	0	0	0	524	717	
6	0	0	0	0	521	717	
7	0	0	0	0	518	718	
8	0	0	0	0	515	718	
9	0	0	0	0	513	718	
10	0	0	0	0	512	717	
11	0	0	0	0	512	718	
12	0	0	0	0	513	718	
13	0	0	0	0	513	718	
14	0	0	0	0	513	718	
15	0	0	0	0	513	717	
0	0	0	0	0	514	718	
1	0	0	0	0	516	718	
2	0	0	0	0	519	718	
3	0	0	0	0	522	718	
4	0	0	0	0	525	718	
5	0	0	0	0	529	718	
6	0	0	0	0	531	718	
7	0	0	0	0	532	718	
8	0	0	0	0	531	718	
9	0	0	0	0	528	718	
10	0	0	0	0	524	718	
11	0	0	0	0	519	718	
12	0	0	0	0	516	718	
13	0	0	0	0	514	718	
14	0	0	0	0	512	718	
15	0	0	0	0	512	718	
0	0	0	0	0	512	718	
1	0	0	0	0	512	718	
2	0	0	0	0	511	718	
3	0	0	0	0	511	718	
4	0	0	0	0	512	718	
5	0	0	0	0	513	718	
6	0	0	0	0	516	718	
7	0	0	0	0	519	718	
8	0	0	0	0	522	718	
9	0	0	0	0	526	718	
10	0	0	0	0	529	718	
11	0	0	0	0	529	718	
12	0	0	0	0	528	718	
13	0	0	0	0	526	718	
14	0	0	0	0	521	718	
15	0	0	0	0	517	718	
0	0	0	0	0	513	718	
1	0	0	0	0	511	718	
2	0	0	0	0	509	718	
3	0	0	0	0	509	719	
4	0	0	0	0	510	719	
5	0	0	0	0	510	718	
6	0	0	0	0	510	718	
7	0	0	0	0	510	718	
8	0	0	0	0	511	718	
9	0	0	0	0	513	718	
10	0	0	0	0	515	719	
11	0	0	0	0	518	718	
12	0	0	0	0	522	718	
13	0	0	0	0	525	719	
14	0	0	0	0	528	719	
15	0	0	0	0	529	719	
0	0	0	0	0	527	719	
1	0	0	0	0	525	719	
2	0	0	0	0	521	719	
3	0	0	0	0	517	719	
4	0	0	0	0	514	719	
5	0	0	0	0	510	719	
6	0	0	0	0	508	719	
7	0	0	0	0	508	719	
8	0	0	0	0	509	719	
9	0	0	0	0	510	719	
10	0	0	0	0	510	719	
11	0	0	0	0	510	719	
12	0	0	0	0	511	719	
13	0	0	0	0	513	719	
14	0	0	0	0	515	719	
15	0	0	0	0	519	719	
0	0	0	0	0	523	719	
1	0	0	0	0	526	719	
2	0	0	0	0	528	719	
3	0	0	0	0	528	719	
4	0	0	0	0	526	719	
5	0	0	0	0	523	719	
6	0	0	0	0	519	719	
7	0	0	0	0	515	719	
8	0	0	0	0	513	719	
9	0	0	0	0	511	719	
10	0	0	0	0	509	719	
11	0	0	0	0	508	719	
12	0	0	0	0	509	719	
13	0	0	0	0	509	719	
14	0	0	0	0	507	719	
15	0	0	0	0	507	719	
0	0	0	0	0	507	719	
1	0	0	0	0	508	719	
2	0	0	0	0	510	719	
3	0	0	0	0	512	719	
4	0	0	0	0	515	719	
5	0	0	0	0	518	719	
6	0	0	0	0	521	719	
7	0	0	0	0	522	719	
8	0	0	0	0	520	719	
9	0	0	0	0	517	719	
10	0	0	0	0	513	719	
11	0	0	0	0	508	719	
12	0	0	0	0	504	719	
13	0	0	0	0	499	719	
14	0	0	0	0	496	719	
15	0	0	0	0	495	719	
0	0	0	0	0	495	719	
1	0	0	0	0	493	719	
2	0	0	0	0	492	719	
3	0	0	0	0	490	719	
4	0	0	0	0	489	719	
5	0	0	0	0	491	719	
6	0	0	0	0	492	719	
7	0	0	0	0	496	719	
8	0	0	0	0	500	719	
9	0	0	0	0	504	720	
10	0	0	0	0	508	720	
11	0	0	0	0	509	719	
12	0	0	0	0	507	720	
13	0	0	0	0	504	719	
14	0	0	0	0	499	720	
15	0	0	0	0	495	719	
0	0	0	0	0	493	720	
1	0	0	0	0	491	720	
2	0	0	0	0	489	720	
3	0	0	0	0	489	720	
4	0	0	0	0	490	720	
5	0	0	0	0	491	720	
6	0	0	0	0	491	720	
7	0	0	0	0	491	719	
8	0	0	0	0	492	720	
9	0	0	0	0	494	719	
10	0	0	0	0	496	720	
11	0	0	0	0	499	720	
12	0	0	0	0	502	720	
13	0	0	0	0	505	720	
14	0	0	0	0	508	720	
15	0	0	0	0	508	720	
0	0	0	0	0	507	720	
1	0	0	0	0	503	720	
2	0	0	0	0	499	720	
3	0	0	0	0	494	720	
4	0	0	0	0	491	720	
5	0	0	0	0	488	720	
6	0	0	0	0	487	720	
7	0	0	0	0	486	720	
8	0	0	0	0	486	720	
9	0	0	0	0	486	720	
10	0	0	0	0	485	720	
11	0	0	0	0	485	720	
12	0	0	0	0	487	720	
13	0	0	0	0	488	720	
14	0	0	0	0	491	720	
15	0	0	0	0	496	720	
0	0	0	0	0	500	720	
1	0	0	0	0	505	720	
2	0	0	0	0	509	720	
3	0	0	0	0	511	720	
4	0	0	0	0	510	720	
5	0	0	0	0	508	720	
6	0	0	0	0	505	720	
7	0	0	0	0	502	720	
8	0	0	0	0	499	720	
9	0	0	0	0	497	720	
10	0	0	0	0	496	720	
11	0	0	0	0	496	720	
12	0	0	0	0	496	720	
13	0	0	0	0	495	720	
14	0	0	0	0	494	720	
15	0	0	0	0	493	720	
0	0	0	0	0	493	720	
1	0	0	0	0	494	720	
2	0	0	0	0	496	720	
3	0	0	0	0	498	720	
4	0	0	0	0	500	720	
5	0	0	0	0	503	720	
6	0	0	0	0	504	720	
7	0	0	0	0	503	720	
8	0	0	0	0	501	720	
9	0	0	0	0	497	720	
10	0	0	0	0	493	720	
11	0	0	0	0	488	720	
12	0	0	0	0	484	721	
13	0	0	0	0	480	721	
14	0	0	0	0	479	720	
15	0	0	0	0	479	721	
0	0	0	0	0	480	721	
1	0	0	0	0	480	721	
2	0	0	0	0	481	721	
3	0	0	0	0	481	720	
4	0	0	0	0	482	721	
5	0	0	0	0	483	721	
6	0	0	0	0	486	721	
7	0	0	0	0	488	721	
8	0	0	0	0	489	720	
9	0	0	0	0	491	721	
10	0	0	0	0	494	721	
11	0	0	0	0	494	721	
12	0	0	0	0	491	721	
13	0	0	0	0	487	721	
14	0	0	0	0	483	721	
15	0	0	0	0	479	721	
0	0	0	0	0	475	721	
1	0	0	0	0	472	721	
2	0	0	0	0	470	721	
3	0	0	0	0	470	721	
4	0	0	0	0	470	721	
5	0	0	0	0	470	721	
6	0	0	0	0	471	721	
7	0	0	0	0	472	721	
8	0	0	0	0	474	721	
9	0	0	0	0	478	721	
10	0	0	0	0	482	721	
11	0	0	0	0	487	721	
12	0	0	0	0	492	721	
13	0	0	0	0	496	721	
14	0	0	0	0	500	721	
15	0	0	0	0	502	721	
0	0	0	0	0	501	721	
1	0	0	0	0	498	721	
2	0	0	0	0	496	721	
3	0	0	0	0	494	721	
4	0	0	0	0	492	721	
5	0	0	0	0	491	721	
6	0	0	0	0	490	721	
7	0	0	0	0	490	721	
8	0	0	0	0	491	721	
9	0	0	0	0	492	721	
10	0	0	0	0	492	721	
11	0	0	0	0	493	721	
12	0	0	0	0	495	721	
13	0	0	0	0	497	721	
14	0	0	0	0	501	721	
15	0	0	0	0	506	721	
0	0	0	0	0	511	721	
1	0	0	0	0	517	721	
2	0	0	0	0	521	722	
3	0	0	0	0	524	721	
4	0	0	0	0	523	721	
5	0	0	0	0	521	721	
6	0	0	0	0	519	722	
7	0	0	0	0	516	721	
8	0	0	0	0	514	721	
9	0	0	0	0	513	721	
10	0	0	0	0	513	722	
11	0	0	0	0	515	722	
12	0	0	0	0	515	722	
13	0	0	0	0	516	721	
14	0	0	0	0	517	722	
15	0	0	0	0	517	721	
0	0	0	0	0	517	722	
1	0	0	0	0	519	722	
2	0	0	0	0	522	722	
3	0	0	0	0	525	722	
4	0	0	0	0	529	721	
5	0	0	0	0	534	722	
6	0	0	0	0	537	722	
7	0	0	0	0	537	722	
8	0	0	0	0	535	722	
9	0	0	0	0	531	722	
10	0	0	0	0	527	722	
11	0	0	0	0	522	722	
12	0	0	0	0	518	722	
13	0	0	0	0	515	722	
14	0	0	0	0	513	722	
15	0	0	0	0	513	722	
0	0	0	0	0	515	722	
1	0	0	0	0	515	722	
2	0	0	0	0	515	722	
3	0	0	0	0	515	722	
4	0	0	0	0	516	722	
5	0	0	0	0	518	722	
6	0	0	0	0	520	722	
7	0	0	0	0	524	722	
8	0	0	0	0	527	722	
9	0	0	0	0	530	722	
10	0	0	0	0	532	722	
11	0	0	0	0	532	722	
12	0	0	0	0	530	722	
13	0	0	0	0	527	722	
14	0	0	0	0	524	723	
15	0	0	0	0	520	722	
0	0	0	0	0	516	722	
1	0	0	0	0	514	722	
2	0	0	0	0	512	722	
3	0	0	0	0	512	722	
4	0	0	0	0	512	722	
5	0	0	0	0	513	722	
6	0	0	0	0	512	722	
7	0	0	0	0	512	722	
8	0	0	0	0	512	722	
9	0	0	0	0	513	722	
10	0	0	0	0	515	722	
11	0	0	0	0	519	722	
12	0	0	0	0	522	722	
13	0	0	0	0	526	722	
14	0	0	0	0	529	723	
15	0	0	0	0	529	722	
0	0	0	0	0	527	722	
1	0	0	0	0	524	722	
2	0	0	0	0	519	722	
3	0	0	0	0	515	723	
4	0	0	0	0	512	722	
5	0	0	0	0	509	723	
6	0	0	0	0	507	722	
7	0	0	0	0	507	723	
8	0	0	0	0	507	723	
9	0	0	0	0	506	723	
10	0	0	0	0	505	723	
11	0	0	0	0	506	723	
12	0	0	0	0	507	723	
13	0	0	0	0	509	722	
14	0	0	0	0	512	722	
15	0	0	0	0	516	723	
0	0	0	0	0	521	722	
1	0	0	0	0	526	723	
2	0	0	0	0	529	723	
3	0	0	0	0	531	723	
4	0	0	0	0	530	723	
5	0	0	0	0	528	723	
6	0	0	0	0	526	722	
7	0	0	0	0	522	723	
8	0	0	0	0	519	723	
9	0	0	0	0	515	723	
10	0	0	0	0	511	723	
11	0	0	0	0	505	723	
12	0	0	0	0	500	723	
13	0	0	0	0	493	723	
14	0	0	0	0	485	723	
15	0	0	0	0	476	723	
0	0	0	0	0	465	723	
1	0	0	0	0	454	723	
2	0	0	0	0	441	723	
3	0	0	0	0	428	723	
4	0	0	0	0	415	723	
5	0	0	0	0	403	723	
6	0	0	0	0	388	723	
7	0	0	0	0	369	723	
8	0	0	0	0	348	723	
9	0	0	0	0	323	723	
10	0	0	0	0	295	723	
11	0	0	0	0	263	723	
12	0	0	0	0	227	723	
13	0	0	0	0	188	723	
14	0	0	0	0	145	723	
15	0	0	0	0	102	723	
0	0	0	0	0	56	723	
1	0	0	0	0	9	723	
2	0	0	0	0	0	723	
3	0	0	0	0	0	723	
4	0	0	0	0	0	723	
5	0	0	0	0	0	723	
6	0	0	0	0	0	723	
7	0	0	0	0	0	723	
8	0	0	0	0	0	723	
9	0	0	0	0	0	723	
10	0	0	0	0	0	723	
11	0	0	0	0	0	723	
12	0	0	0	0	0	723	
13	0	0	0	0	18	723	
14	0	0	0	0	79	723	
15	0	0	0	0	148	723	
0	0	0	0	0	228	723	
1	0	0	0	0	318	723	
2	0	0	0	0	408	723	
3	0	0	0	0	499	723	
4	0	0	0	0	585	723	
5	0	0	0	0	660	723	
6	0	0	0	0	719	723	
7	0	0	0	0	763	723	
8	0	0	0	0	796	723	
9	0	0	0	0	820	723	
10	0	0	0	0	839	723	
11	0	0	0	0	855	723	
12	0	0	0	0	867	723	
13	0	0	0	0	874	723	
14	0	0	0	0	876	723	
15	0	0	0	0	870	723	
0	0	0	0	0	859	723	
1	0	0	0	0	846	723	
2	0	0	0	0	831	723	
3	0	0	0	0	815	723	
4	0	0	0	0	798	723	
5	0	0	0	0	782	724	
6	0	0	0	0	766	723	
7	0	0	0	0	752	724	
8	0	0	0	0	738	723	
9	0	0	0	0	725	723	
10	0	0	0	0	711	723	
11	0	0	0	0	697	723	
12	0	0	0	0	686	723	
13	0	0	0	0	675	723	
14	0	0	0	0	666	723	
15	0	0	0	0	659	723	
0	0	0	0	0	652	723	
1	0	0	0	0	647	724	
2	0	0	0	0	642	724	
3	0	0	0	0	636	724	
4	0	0	0	0	628	724	
5	0	0	0	0	620	724	
6	0	0	0	0	612	724	
7	0	0	0	0	606	724	
8	0	0	0	0	602	724	
9	0	0	0	0	598	724	
10	0	0	0	0	596	724	
11	0	0	0	0	594	724	
12	0	0	0	0	593	724	
13	0	0	0	0	591	724	
14	0	0	0	0	589	724	
15	0	0	0	0	587	724	
0	0	0	0	0	587	724	
1	0	0	0	0	588	724	
2	0	0	0	0	589	724	
3	0	0	0	0	592	724	
4	0	0	0	0	593	724	
5	0	0	0	0	596	724	
6	0	0	0	0	598	724	
7	0	0	0	0	596	724	
8	0	0	0	0	594	724	
9	0	0	0	0	590	724	
10	0	0	0	0	584	724	
11	0	0	0	0	580	724	
12	0	0	0	0	575	724	
13	0	0	0	0	572	724	
14	0	0	0	0	571	724	
15	0	0	0	0	571	724	
0	0	0	0	0	571	724	
1	0	0	0	0	570	724	
2	0	0	0	0	569	724	
3	0	0	0	0	569	724	
4	0	0	0	0	568	724	
5	0	0	0	0	569	724	
6	0	0	0	0	570	724	
7	0	0	0	0	573	724	
8	0	0	0	0	576	724	
9	0	0	0	0	579	725	
10	0	0	0	0	580	724	
11	0	0	0	0	579	724	
12	0	0	0	0	577	725	
13	0	0	0	0	573	724	
14	0	0	0	0	568	725	
15	0	0	0	0	563	725	
0	0	0	0	0	559	725	
1	0	0	0	0	555	725	
2	0	0	0	0	552	725	
3	0	0	0	0	551	725	
4	0	0	0	0	551	725	
5	0	0	0	0	550	724	
6	0	0	0	0	549	725	
7	0	0	0	0	548	725	
8	0	0	0	0	548	725	
9	0	0	0	0	550	725	
10	0	0	0	0	552	725	
11	0	0	0	0	556	725	
12	0	0	0	0	559	725	
13	0	0	0	0	563	725	
14	0	0	0	0	565	725	
15	0	0	0	0	565	725	
0	0	0	0	0	563	725	
1	0	0	0	0	559	725	
2	0	0	0	0	556	726	
3	0	0	0	0	551	725	
4	0	0	0	0	547	725	
5	0	0	0	0	544	725	
6	0	0	0	0	542	725	
7	0	0	0	0	542	726	
8	0	0	0	0	542	725	
9	0	0	0	0	540	726	
10	0	0	0	0	540	725	
11	0	0	0	0	539	725	
12	0	0	0	0	539	725	
13	0	0	0	0	540	725	
14	0	0	0	0	542	725	
15	0	0	0	0	544	725	
0	0	0	0	0	548	725	
1	0	0	0	0	551	726	
2	0	0	0	0	553	725	
3	0	0	0	0	553	726	
4	0	0	0	0	551	726	
5	0	0	0	0	547	725	
6	0	0	0	0	543	725	
7	0	0	0	0	540	726	
8	0	0	0	0	536	725	
9	0	0	0	0	534	726	
10	0	0	0	0	532	725	
11	0	0	0	0	531	726	
12	0	0	0	0	531	726	
13	0	0	0	0	530	726	
14	0	0	0	0	529	726	
15	0	0	0	0	528	726	
0	0	0	0	0	528	726	
1	0	0	0	0	529	726	
2	0	0	0	0	531	726	
3	0	0	0	0	533	726	
4	0	0	0	0	536	726	
5	0	0	0	0	540	726	
6	0	0	0	0	542	726	
7	0	0	0	0	542	726	
8	0	0	0	0	539	726	
9	0	0	0	0	535	726	
10	0	0	0	0	530	726	
11	0	0	0	0	527	726	
12	0	0	0	0	524	726	
13	0	0	0	0	521	726	
14	0	0	0	0	519	726	
15	0	0	0	0	518	726	
0	0	0	0	0	518	726	
1	0	0	0	0	516	726	
2	0	0	0	0	515	726	
3	0	0	0	0	514	726	
4	0	0	0	0	515	726	
5	0	0	0	0	516	726	
6	0	0	0	0	518	726	
7	0	0	0	0	521	726	
8	0	0	0	0	524	726	
9	0	0	0	0	527	726	
10	0	0	0	0	529	726	
11	0	0	0	0	528	726	
12	0	0	0	0	525	726	
13	0	0	0	0	520	726	
14	0	0	0	0	516	726	
15	0	0	0	0	512	726	
0	0	0	0	0	508	726	
1	0	0	0	0	505	726	
2	0	0	0	0	503	726	
3	0	0	0	0	503	727	
4	0	0	0	0	504	726	
5	0	0	0	0	504	726	
6	0	0	0	0	503	726	
7	0	0	0	0	502	726	
8	0	0	0	0	502	726	
9	0	0	0	0	503	726	
10	0	0	0	0	506	726	
11	0	0	0	0	509	726	
12	0	0	0	0	512	726	
13	0	0	0	0	515	726	
14	0	0	0	0	518	726	
15	0	0	0	0	518	726	
0	0	0	0	0	515	726	
1	0	0	0	0	511	726	
2	0	0	0	0	506	727	
3	0	0	0	0	502	727	
4	0	0	0	0	496	727	
5	0	0	0	0	494	727	
6	0	0	0	0	491	727	
7	0	0	0	0	491	727	
8	0	0	0	0	490	726	
9	0	0	0	0	489	727	
10	0	0	0	0	488	726	
11	0	0	0	0	488	726	
12	0	0	0	0	488	727	
13	0	0	0	0	490	727	
14	0	0	0	0	493	727	
15	0	0	0	0	495	727	
0	0	0	0	0	498	727	
1	0	0	0	0	501	727	
2	0	0	0	0	504	727	
3	0	0	0	0	503	727	
4	0	0	0	0	500	727	
5	0	0	0	0	496	727	
6	0	0	0	0	492	727	
7	0	0	0	0	487	727	
8	0	0	0	0	484	727	
9	0	0	0	0	481	727	
10	0	0	0	0	478	727	
11	0	0	0	0	478	727	
12	0	0	0	0	478	727	
13	0	0	0	0	478	727	
14	0	0	0	0	477	727	
15	0	0	0	0	476	727	
0	0	0	0	0	476	727	
1	0	0	0	0	477	727	
2	0	0	0	0	479	727	
3	0	0	0	0	481	727	
4	0	0	0	0	483	727	
5	0	0	0	0	486	727	
6	0	0	0	0	489	727	
7	0	0	0	0	488	727	
8	0	0	0	0	486	727	
9	0	0	0	0	482	727	
10	0	0	0	0	479	727	
11	0	0	0	0	474	727	
12	0	0	0	0	471	727	
13	0	0	0	0	468	727	
14	0	0	0	0	467	727	
15	0	0	0	0	466	727	
0	0	0	0	0	466	727	
1	0	0	0	0	465	727	
2	0	0	0	0	464	727	
3	0	0	0	0	464	727	
4	0	0	0	0	464	727	
5	0	0	0	0	466	727	
6	0	0	0	0	468	727	
7	0	0	0	0	472	727	
8	0	0	0	0	474	727	
9	0	0	0	0	477	727	
10	0	0	0	0	479	727	
11	0	0	0	0	479	727	
12	0	0	0	0	476	728	
13	0	0	0	0	472	727	
14	0	0	0	0	469	728	
15	0	0	0	0	465	728	
0	0	0	0	0	463	728	
1	0	0	0	0	460	728	
2	0	0	0	0	459	728	
3	0	0	0	0	459	728	
4	0	0	0	0	460	728	
5	0	0	0	0	461	728	
6	0	0	0	0	460	728	
7	0	0	0	0	460	727	
8	0	0	0	0	461	728	
9	0	0	0	0	463	727	
10	0	0	0	0	467	728	
11	0	0	0	0	471	728	
12	0	0	0	0	475	727	
13	0	0	0	0	479	728	
14	0	0	0	0	483	728	
15	0	0	0	0	484	727	
0	0	0	0	0	483	728	
1	0	0	0	0	481	728	
2	0	0	0	0	479	728	
3	0	0	0	0	476	728	
4	0	0	0	0	474	727	
5	0	0	0	0	473	728	
6	0	0	0	0	473	728	
7	0	0	0	0	475	728	
8	0	0	0	0	477	728	
9	0	0	0	0	479	728	
10	0	0	0	0	480	728	
11	0	0	0	0	481	728	
12	0	0	0	0	484	728	
13	0	0	0	0	487	728	
14	0	0	0	0	491	728	
15	0	0	0	0	496	728	
0	0	0	0	0	501	728	
1	0	0	0	0	506	728	
2	0	0	0	0	510	728	
3	0	0	0	0	512	728	
4	0	0	0	0	512	728	
5	0	0	0	0	511	728	
6	0	0	0	0	509	728	
7	0	0	0	0	507	728	
8	0	0	0	0	505	728	
9	0	0	0	0	505	728	
10	0	0	0	0	505	728	
11	0	0	0	0	506	728	
